1.000000000000000000e+00,2.531139464689857732e-10,1.311823472928668605e-14,4.264972249201854151e-15,4.141990232269285091e-31
9.999988079071044922e-01,3.785430351399554638e-07,3.378916630936146248e-07,5.082832785774371587e-07,1.879538478166644703e-22
9.999003410339355469e-01,9.968248923541978002e-05,4.945945319967393061e-10,2.280625953442608005e-17,1.977115817336235393e-32
9.999998807907104492e-01,6.533524388174782871e-09,1.574933889969543088e-07,5.081480670135951269e-15,7.319760816694658578e-30
9.999998807907104492e-01,1.116293759650943684e-07,2.730626169622496491e-09,4.019358630646951980e-12,1.380177445718540419e-30
9.999998807907104492e-01,9.063104755568929249e-08,6.954681275317398104e-11,1.425829159601432750e-11,8.296661607317274876e-28
1.000000000000000000e+00,1.630763996063322452e-10,2.789967963687939312e-14,2.098314909684557278e-15,4.817781963944376950e-33
9.999978542327880859e-01,2.202275709350942634e-06,7.746610464209879865e-09,5.759663528585737616e-15,1.909819277091702041e-30
9.999924898147583008e-01,7.556213859061244875e-06,4.902160407070426870e-15,5.950505366225655735e-11,7.538497933970246627e-31
9.999815225601196289e-01,1.545908344269264489e-05,2.810297473843093030e-06,6.562407151022853213e-08,3.707508208757395469e-16
1.000000000000000000e+00,2.217688810368656505e-10,1.710562522900868220e-17,5.836910392276488044e-16,1.856157811386831833e-35
1.000000000000000000e+00,8.315111793555374220e-11,3.016404265037894716e-14,2.272732499729259484e-17,2.098116434381884411e-36
9.995020627975463867e-01,1.375366700813174248e-04,5.048080424785439391e-07,3.599720657803118229e-04,3.888684916580395078e-17
9.981008172035217285e-01,1.899044378660619259e-03,1.132909588363872899e-07,3.458408004419766257e-09,3.456304719306068756e-20
1.000000000000000000e+00,2.513737551446126872e-10,2.280977663693395385e-11,1.963380697714463274e-14,2.201113359993829490e-30
8.920884132385253906e-01,4.545752704143524170e-02,6.245411187410354614e-02,2.332618365130656457e-08,3.084065779311843116e-18
9.999952316284179688e-01,3.242353159293998033e-07,4.420945970196044073e-06,1.820089565174320967e-11,8.189113706992181327e-29
9.999293088912963867e-01,1.087629789253696799e-05,2.958653055884497007e-07,5.960467024124227464e-05,6.439045306751261383e-20
9.999938011169433594e-01,1.649822706895065494e-06,4.501329840422840789e-06,2.165531309827883888e-09,1.140753958338083386e-21
9.999954700469970703e-01,4.942177156408433802e-08,4.480552433960838243e-06,8.154599391574368639e-12,1.554411917325828977e-21
1.000000000000000000e+00,4.140486287163014367e-10,2.116833618115432358e-12,1.345772343390450043e-12,4.756704282523320844e-30
1.000000000000000000e+00,7.577807714653772564e-09,1.112090280974697976e-11,4.436508438300789140e-16,9.140621113120068164e-34
1.000000000000000000e+00,7.155459780250339463e-09,2.678446006654233713e-12,2.237158375217873640e-11,2.961066252351848862e-28
9.998807907104492188e-01,3.606462996685877442e-05,4.522508447735162918e-07,8.263223571702837944e-05,7.552899319257377631e-19
1.000000000000000000e+00,5.154073348667687071e-12,2.086903531685866165e-19,3.987189752913496881e-16,0.000000000000000000e+00
9.999998807907104492e-01,1.715347792696775286e-07,2.113132226437466205e-14,7.565076343141186044e-11,5.491540219696924842e-30
9.992617964744567871e-01,7.379144662991166115e-04,3.290092109864417580e-08,2.194395705146234832e-07,2.536042055067792844e-15
9.999992847442626953e-01,7.279305123120138887e-07,2.415485172990727847e-11,2.665374865262748472e-10,1.259415299225641829e-22
9.998773336410522461e-01,1.226749445777386427e-04,4.952923848833279408e-09,3.219655228189899354e-12,1.202678807335012767e-21
1.000000000000000000e+00,5.327747132355398207e-10,3.132849882292454424e-11,3.917924163047368505e-16,1.025107848391822788e-33
9.999898672103881836e-01,8.587803677073679864e-06,3.825824657077703250e-10,1.540248945275379810e-06,1.522512780455843132e-22
4.269033372402191162e-01,2.993101952597498894e-05,1.208528876304626465e-03,5.718581676483154297e-01,4.844238684774578030e-14
1.000000000000000000e+00,1.985322128916777729e-08,4.522335839141078395e-09,5.775333544733030067e-10,7.188838153320241217e-24
9.999699592590332031e-01,2.998988384206313640e-05,6.470061899438439568e-12,9.476284645870691747e-09,1.795673626147594994e-24
1.000000000000000000e+00,1.245875147840025399e-13,5.324620744318053767e-09,2.638058279718627150e-15,2.913755399586620305e-30
9.998737573623657227e-01,1.165154244517907500e-04,1.919005576667132118e-08,9.617611794965341687e-06,9.120729180484260756e-19
9.999997615814208984e-01,6.750985193093583803e-08,1.104414835140232753e-07,8.482875860083005648e-12,2.919388743169320201e-27
9.543861746788024902e-01,4.091984033584594727e-02,4.619695711880922318e-03,7.424881187034770846e-05,5.883564468955881921e-11
1.000000000000000000e+00,2.513259378389420817e-09,7.464912634487994923e-19,6.933799794822881812e-17,1.870993261819304325e-36
9.987970590591430664e-01,1.823307975428178906e-04,3.404823587516148109e-07,1.020260970108211040e-03,1.096886883781428544e-18
1.000000000000000000e+00,1.266611728695243855e-11,1.356721957002093859e-10,7.698651355603303788e-17,8.010812482256014587e-36
9.999674558639526367e-01,1.250188508272742638e-09,3.257176649640314281e-05,1.407858882642235021e-14,2.325566416749013781e-26
1.000000000000000000e+00,3.343740215266954863e-12,1.859256800980976093e-14,1.362933793602749688e-10,2.369171101326300306e-32
1.000000000000000000e+00,1.164917851070867982e-08,9.749247975990020412e-17,3.140360692842347756e-13,7.388766637397250864e-32
9.999907016754150391e-01,9.287701686844229698e-06,9.642771824081020071e-12,9.593573851995884638e-11,2.151701935461489432e-25
1.000000000000000000e+00,5.719456158681524016e-11,4.034377947817122112e-14,4.290784029787322255e-17,9.185242832759534119e-37
1.000000000000000000e+00,9.171967005339176637e-12,2.914265294725091422e-16,2.435221468921611176e-11,6.381808622672272042e-36
9.617519378662109375e-01,8.643145520181860775e-06,3.823952376842498779e-02,1.319131571553625037e-13,1.797811667808628335e-29
9.999959468841552734e-01,5.197442760618287139e-07,3.597910108510404825e-06,9.618920972096411601e-16,7.093931989020333702e-30
1.000000000000000000e+00,2.992395664591640525e-09,3.851262841622626887e-13,7.759565597656198788e-17,1.658184444994981506e-35
9.903571009635925293e-01,9.642808698117733002e-03,1.100305713208626912e-08,1.770655870814152877e-07,1.684092681260625393e-18
9.999995231628417969e-01,4.257838952526071807e-07,6.024420112077377709e-12,1.279707867452017922e-10,4.433751697027625360e-22
9.999372959136962891e-01,6.078173464629799128e-05,1.873282599262893200e-06,4.143594356520452493e-09,5.734836465987663877e-19
1.000000000000000000e+00,5.032744776478637050e-10,4.378012107216932581e-19,1.043201712080249477e-13,1.754177367246792615e-38
1.000000000000000000e+00,1.773515023728577944e-08,8.051361769130516155e-13,1.144256800422738252e-09,4.513057060957875686e-27
9.999997615814208984e-01,1.162046014968609597e-08,2.091231010581395822e-07,3.580878879549422023e-14,1.441844289316332471e-33
9.999951124191284180e-01,4.457514933164929971e-06,4.399736326377023943e-07,1.015176387397787039e-09,1.069649066980976172e-18
9.999994039535522461e-01,5.618385330308228731e-07,4.801419706268461596e-08,2.609063010083900735e-08,6.716581365927708041e-21
9.974486231803894043e-01,1.957859611138701439e-03,5.655793938785791397e-04,2.786319964798167348e-05,1.830681994885452468e-10
1.000000000000000000e+00,7.564741368037974922e-12,3.816231504982385342e-16,2.027503392045461198e-17,0.000000000000000000e+00
9.999998807907104492e-01,3.822153964855301567e-12,7.143449209934260580e-08,5.488579110763916236e-18,2.570331659304622065e-29
5.226327776908874512e-01,4.688226059079170227e-02,5.647718161344528198e-02,3.740078210830688477e-01,1.830855074751863709e-13
9.983268380165100098e-01,1.669655903242528439e-03,1.014230747387045994e-06,2.409630951660801657e-06,2.398902973984348534e-15
9.999994039535522461e-01,6.313456992756982800e-07,3.371183269606364830e-13,6.753631399784854050e-13,2.026584234263966030e-30
9.992116689682006836e-01,7.880692719481885433e-04,3.937451609203890257e-08,2.703556560845754575e-07,7.329456825419246009e-17
1.000000000000000000e+00,3.431670592135560582e-08,9.243402154801572124e-10,3.194093045610912895e-10,1.226888479908216015e-26
1.000000000000000000e+00,2.051046416040591680e-10,4.765831826403221783e-11,2.052199729596360100e-11,6.656518481447716564e-28
9.999922513961791992e-01,2.573131638317072145e-11,7.732724952802527696e-06,1.620809042535142908e-11,2.768174447571137664e-23
9.999123811721801758e-01,8.766644896240904927e-05,2.660917319818878468e-10,1.666126014931990085e-09,7.311806580086997758e-23
1.000000000000000000e+00,1.463445059579626673e-10,8.452553300298745742e-14,5.306879935496056078e-12,5.395765924087972342e-32
1.000000000000000000e+00,1.944032517023396370e-15,4.034976866518213967e-11,9.169769649386975371e-22,0.000000000000000000e+00
9.999989271163940430e-01,1.188846798783060876e-08,1.095696575248439331e-06,1.523556129347236610e-13,1.159972737325261485e-26
1.000000000000000000e+00,1.837805255200386512e-11,1.047156881605476597e-13,1.052352302521875060e-10,3.703265647887026342e-31
9.999662637710571289e-01,3.238029239582829177e-05,1.370254040011786856e-06,1.421352618935500800e-11,7.914140983480590267e-20
9.999983310699462891e-01,1.354124378849519417e-06,4.037873111428780248e-07,5.305877071037912174e-09,3.483677288998184845e-20
1.000000000000000000e+00,8.492263781079145701e-09,1.496793411871061297e-13,7.134207113956847479e-11,1.284320587147968084e-28
9.999979734420776367e-01,2.008912133533158340e-06,2.714871079681491217e-12,2.870646775843255227e-10,6.877017214704479671e-25
1.000000000000000000e+00,4.321376867455484216e-10,1.395717985630540170e-10,7.030401917223764638e-17,5.734944005746803206e-38
1.000000000000000000e+00,4.557991484244183766e-11,1.199991907247412312e-17,6.538924946213747758e-16,4.099674099949985808e-38
9.999284744262695312e-01,1.041055202222196385e-05,6.110072718001902103e-05,1.190277321150290391e-10,4.142464906382379903e-25
9.985966086387634277e-01,1.398120773956179619e-03,1.339156710855604615e-06,3.919840310118161142e-06,1.226538383035505114e-16
9.999511241912841797e-01,3.848267078865319490e-05,1.036268713505705819e-05,4.555687826979237798e-09,0.000000000000000000e+00
1.000000000000000000e+00,1.471511662520796904e-10,1.980779135615892868e-16,8.485473744013552477e-14,7.293841015264252299e-37
9.999924898147583008e-01,2.901767174989799969e-06,4.684016857936512679e-06,4.637381867400591773e-10,2.745625844671526568e-24
9.999996423721313477e-01,3.543191837707126979e-07,1.401693973564210882e-13,2.687492589581452762e-12,4.146599585231627752e-26
9.999338388442993164e-01,6.395902164513245225e-05,1.786670964065706357e-06,3.066993770062254043e-07,7.301668850793384619e-18
9.098025560379028320e-01,2.635807497426867485e-03,7.368812930508283898e-06,8.755420148372650146e-02,5.776750935988935430e-16
1.000000000000000000e+00,2.500179441256022983e-08,1.420322748302282889e-10,1.292994470494709383e-17,1.277591656528018786e-36
9.999996423721313477e-01,4.118637946248782100e-07,1.289398032788824366e-10,1.562375367969437434e-10,7.460115964365403368e-22
9.999991655349731445e-01,3.942766966247290839e-07,4.587074329265306005e-07,3.917089905474541167e-13,1.093352596099821229e-28
9.999768733978271484e-01,2.317770668014418334e-05,7.156550019260521367e-09,3.648808188927432639e-08,8.319936501510073731e-25
9.999766349792480469e-01,3.160988415462639978e-10,2.330943789274897426e-05,1.748641054004351769e-12,6.347471707544113758e-22
9.999997615814208984e-01,4.883769388897007957e-09,2.854699232557322830e-07,1.181633783875479793e-12,1.073380943317768642e-27
9.999983310699462891e-01,1.618174223949608859e-06,8.511895355223231263e-11,3.357948684737377398e-12,8.424977669775230169e-23
1.000000000000000000e+00,2.425447267074415381e-13,1.573388229599015364e-12,1.480110962449616291e-14,0.000000000000000000e+00
9.994478821754455566e-01,5.520848790183663368e-04,2.103612839476909357e-09,1.928897574998700293e-08,6.661348480787753678e-21
1.000000000000000000e+00,3.950098026450632460e-09,1.033943547099069882e-12,1.548671746398611049e-10,3.937274496622056739e-27
9.999997615814208984e-01,1.979492338932686835e-07,2.509497058940379777e-14,2.612463468210785011e-13,6.380706716150438901e-30
9.995101690292358398e-01,2.388370485277846456e-04,7.697253181504493114e-07,2.503874129615724087e-04,1.195881729501697572e-17
5.724803805351257324e-01,2.464060457896266598e-07,4.275193810462951660e-01,1.832851426186721255e-09,7.619563603141900110e-25
1.000000000000000000e+00,1.403452596074794469e-16,7.325523743162420942e-09,1.860064241341800849e-19,5.105053836902496333e-28
9.999986886978149414e-01,1.290665409214852843e-06,1.541679006678009500e-10,1.319046434578030613e-12,1.005649372597399925e-29
9.999823570251464844e-01,1.007375976769253612e-05,7.541659670096123591e-06,1.806295807371682827e-10,6.396431712760713574e-24
9.999946355819702148e-01,5.337229140423005447e-06,6.766190385754100589e-11,1.824350392976015200e-10,7.465398429422252934e-23
9.999959468841552734e-01,3.156227194267557934e-06,4.135124811455170857e-07,5.925530217609775718e-07,2.455607399010072802e-19
9.999949932098388672e-01,5.043088094680570066e-06,5.786236911831110774e-08,4.088334285370399945e-14,3.157327294507970162e-22
9.621378779411315918e-01,3.786138072609901428e-02,2.148054250028508250e-07,4.768076280470268102e-07,5.184264814856766324e-14
1.000000000000000000e+00,3.116502195199544190e-11,2.795313243028618722e-12,2.605185089854365364e-16,3.570953932303888978e-34
9.999996423721313477e-01,2.560194900524948025e-07,9.311109039344955818e-08,4.195654934591175333e-11,5.479120931469210450e-26
1.000000000000000000e+00,1.974919793673590718e-13,1.637906121180537970e-17,1.767810984822263767e-19,0.000000000000000000e+00
1.000000000000000000e+00,2.120388753468205323e-09,6.842938835268709032e-16,8.739545342300626685e-15,3.403285734370917314e-33
1.000000000000000000e+00,6.789801165751896406e-09,5.263568469970891783e-10,1.758508703236794091e-12,5.117524530457375573e-31
9.999998807907104492e-01,1.388454080597512075e-07,1.099445729769998881e-12,1.129609426830935348e-11,4.319148797802615910e-30
1.000000000000000000e+00,1.002828896312646378e-11,4.629951969910154133e-16,7.401274959659837060e-14,2.527704769422420507e-36
1.000000000000000000e+00,2.375401398033388349e-21,8.152024194574281069e-12,4.159143732543335581e-13,3.625516247471732455e-33
1.000000000000000000e+00,6.979412187080313856e-11,6.209843750326626832e-11,9.705160407393801611e-18,1.059766649865189105e-29
9.999989271163940430e-01,9.819588058235240169e-07,1.839686092353076674e-08,1.458449361280145240e-07,2.009801299775588204e-21
9.999967813491821289e-01,4.365622885416087229e-08,3.228573405067436397e-06,1.419191569818067933e-10,1.001780080229808065e-22
1.000000000000000000e+00,1.737172146583365606e-13,4.138271322839948141e-12,3.334395476742302300e-13,6.538760383893075609e-28
6.162610650062561035e-01,3.837248980998992920e-01,1.389465614920482039e-05,1.367686479625263019e-07,1.333703932730935125e-16
9.999971389770507812e-01,1.508776014281371092e-13,2.917002120739198290e-06,4.903158296585587161e-14,1.916144243187104985e-23
9.999873638153076172e-01,1.261313900613458827e-05,2.669222354256817198e-08,8.472999191155849985e-09,4.098721617348306559e-20
9.685171842575073242e-01,9.340472170151770115e-04,3.018800541758537292e-02,3.608260885812342167e-04,6.305587163524251082e-10
1.000000000000000000e+00,1.787270553776920679e-09,1.002640054315051543e-10,3.122214943182544111e-14,2.329123037351341940e-33
9.999917745590209961e-01,8.221601092373020947e-06,1.681311448571698453e-12,7.466386883758779902e-12,2.400667502111462806e-23
9.999307394027709961e-01,6.930551899131387472e-05,1.523834530781087437e-11,3.809537574284149741e-09,9.051369996834467828e-27
1.000000000000000000e+00,2.443951616602768606e-14,1.283851063654806168e-12,4.126104319324142011e-11,1.346348136568723093e-26
9.997194409370422363e-01,1.837150921346619725e-04,9.528568625682964921e-05,1.379102172904822510e-06,7.457073754015559587e-18
9.989790916442871094e-01,1.020776340737938881e-03,8.552549246587659582e-08,4.398674827155168998e-11,1.499728701780851771e-18
1.000000000000000000e+00,3.274839954769959149e-09,2.126883425171313506e-15,2.094788076250427185e-15,3.749382509670988748e-36
1.000000000000000000e+00,8.953977115311317903e-09,3.982172813721263083e-09,3.713637383717660612e-11,5.034835394095109908e-26
1.000000000000000000e+00,1.395234372481013452e-09,1.569744889629021145e-10,1.927637953771932366e-12,3.281551407156646752e-30
9.998139739036560059e-01,4.595974711918415778e-09,1.860974443843588233e-04,1.142813125490534099e-14,1.450743323278628764e-28
1.000000000000000000e+00,4.116801122222568665e-09,1.045138628419373106e-11,2.116926425821397117e-12,9.031816713159484126e-35
9.999998807907104492e-01,1.428029747785330983e-07,2.692495748926604371e-12,2.102815421789472339e-10,5.989926240229699508e-26
1.000000000000000000e+00,4.479247805999619914e-10,1.761010804681665404e-14,8.405323962887290001e-13,2.015514086744758187e-30
9.933506846427917480e-01,6.639430299401283264e-03,9.997307643061503768e-06,2.820779165801923227e-10,6.518718826364486163e-19
9.999989271163940430e-01,1.094554022529337090e-06,3.770634637856318250e-10,6.527601570383012586e-09,9.864158493936523979e-32
1.000000000000000000e+00,9.630500841240063892e-10,1.527047302694287297e-15,1.085358907783329219e-12,1.502382319912511525e-28
9.999979734420776367e-01,1.381437414238462225e-06,5.974928285468195099e-07,1.695723672590077058e-09,9.649116245279091868e-23
9.998846054077148438e-01,8.099674596451222897e-05,2.858996150933990066e-09,3.429241769481450319e-05,2.973672700759436756e-21
9.972264170646667480e-01,2.773551736027002335e-03,2.322169834201304184e-08,1.016662865005457661e-10,3.406778507975677983e-18
1.000000000000000000e+00,3.356942328280876353e-12,3.950891711058465439e-19,1.112600275531184938e-17,0.000000000000000000e+00
9.999996423721313477e-01,3.242157333716022549e-07,1.637036894930332664e-10,4.810972953350756143e-08,4.938079940066280859e-23
1.000000000000000000e+00,2.708388513461557068e-10,6.675618825086049313e-12,3.357851757063157194e-12,3.337282093914230502e-33
1.000000000000000000e+00,2.361479678469891041e-09,2.608551829402783184e-12,3.723536454399610984e-16,6.138261604326093083e-36
9.999916553497314453e-01,6.513839252875186503e-06,1.818852069845888764e-06,1.442013264352226543e-08,2.708952135061299601e-23
9.670699238777160645e-01,3.259133175015449524e-02,8.149759378284215927e-05,2.572711673565208912e-04,6.221061426420204654e-12
9.999743700027465820e-01,1.749200418998952955e-05,8.127705768856685609e-06,3.742376963877802609e-10,1.930807893878118205e-20
1.000000000000000000e+00,2.517336061824693161e-10,2.584615688823682731e-16,2.120647407677367369e-13,1.038727787156022148e-33
9.994638562202453613e-01,5.356622859835624695e-04,1.431958480679895729e-07,4.114598084470344475e-07,7.948276400915180913e-20
9.999986886978149414e-01,1.320845626651134808e-06,4.503565076419135949e-09,3.448240635086155526e-15,4.946216329778426230e-32
9.999949932098388672e-01,5.031688942835899070e-06,4.071452508469519671e-08,1.218635059530015496e-08,3.025263042757638443e-21
1.000000000000000000e+00,3.547160076777799986e-08,7.393036183245271786e-10,4.734894117411347914e-13,2.067529488792059737e-34
9.999965429306030273e-01,3.406486712265177630e-06,5.135962141689098814e-11,8.012250862776681970e-10,1.788605471879859990e-23
1.000000000000000000e+00,2.827605882771422330e-08,1.027098429906819071e-14,1.563888043587882692e-13,5.572752968281457888e-35
9.999984502792358398e-01,2.585308891411841614e-07,1.292255092266714200e-06,5.960022406159559694e-12,2.754817432004741422e-20
1.000000000000000000e+00,2.751733507722065042e-09,7.484667996493499231e-09,3.612863182450923305e-14,1.730302300653740188e-26
8.140420317649841309e-01,1.326010227203369141e-01,5.334579572081565857e-02,1.120510842156363651e-05,4.337705195034402550e-10
9.999890327453613281e-01,9.198359372905758058e-15,1.001030341285513714e-05,9.637603852752363309e-07,8.603621532649770060e-24
1.000000000000000000e+00,1.198075111341623256e-10,1.769868984336901557e-19,2.648229153564236269e-17,0.000000000000000000e+00
9.999535083770751953e-01,4.643549982574768364e-05,1.914962632909578133e-10,5.209850021010986598e-13,3.282887886654846740e-23
1.000000000000000000e+00,6.524720763678715230e-09,1.018153423170634758e-14,2.168917443649137633e-13,2.119539348354109802e-28
1.000000000000000000e+00,7.507955923635734052e-10,2.619295335266641923e-16,1.120605530976126127e-14,3.290573678947513055e-32
1.000000000000000000e+00,1.190976317566594389e-09,5.452886406298596000e-13,3.276178156888520654e-12,1.877413060749137087e-29
9.999992847442626953e-01,6.980419584579067305e-07,6.122497257440850937e-13,7.645947208700931697e-10,1.425483518259119543e-29
7.093787193298339844e-01,2.901418507099151611e-01,1.737379449195941561e-07,4.792369436472654343e-04,1.548495548384221794e-18
1.000000000000000000e+00,3.011443594491680642e-10,2.044865436646916418e-15,2.479408585181423069e-15,1.489440595114666820e-35
1.000000000000000000e+00,1.132429705563708922e-10,1.153666734626107582e-13,1.058565595371219962e-16,1.281314703272011474e-30
9.999998807907104492e-01,1.476737878647327307e-07,2.329333015534118534e-13,6.179560335661804515e-11,6.991372217158547713e-27
9.999986886978149414e-01,1.100355007110920269e-06,2.885917922412772896e-07,6.112701456117974885e-10,2.777591071361518744e-19
9.999985694885253906e-01,1.432217118235712405e-06,3.040224669237368005e-11,2.258651754516449728e-08,8.095463557887029121e-29
9.988534450531005859e-01,1.009002444334328175e-03,1.374917483190074563e-04,2.639547469485137299e-10,1.916665528784162271e-21
9.999983310699462891e-01,1.650264607633289415e-06,5.019760962454711262e-08,1.803749372086826952e-10,5.372682835139111528e-20
9.999996423721313477e-01,3.536709982654429041e-07,3.655493063196152415e-13,8.826308824441686518e-13,1.311436573355222343e-27
1.000000000000000000e+00,8.788590688535435902e-11,1.619731101966369708e-18,3.058215897132999595e-16,1.963651833611611533e-35
9.951510429382324219e-01,4.475615452975034714e-03,3.108820965280756354e-05,3.422154695726931095e-04,3.103682033600563273e-10
1.000000000000000000e+00,6.159292187390974505e-09,1.059291111350587160e-19,1.105420492570831854e-18,0.000000000000000000e+00
9.999958276748657227e-01,1.521857711850316264e-06,2.644268306539743207e-06,1.070824429127981148e-09,1.116460048017325114e-25
1.000000000000000000e+00,1.061966278803616603e-10,2.677405077700957536e-15,2.242036283801114756e-15,5.164243928834639146e-36
5.307297706604003906e-01,8.117489051073789597e-05,8.814939064905047417e-05,4.691009223461151123e-01,1.795373152582583134e-16
9.999997615814208984e-01,6.482926639961306137e-09,2.501596725323906867e-07,3.660341708485131788e-17,1.702177349773098166e-33
9.999998807907104492e-01,7.597014928251155652e-08,5.904457966391524204e-14,2.069665411275067868e-10,6.414945387126613702e-31
9.999893903732299805e-01,5.552897164307069033e-08,1.065729884430766106e-05,8.628573755935827882e-16,2.265965900546209454e-31
9.999529123306274414e-01,2.354812068006140180e-06,4.469690247788093984e-05,2.420858236096279370e-10,6.714875533106258125e-24
9.999997615814208984e-01,2.959132530122587923e-07,3.365680711908680678e-08,6.112932826596306768e-09,3.873803754004887585e-29
1.000000000000000000e+00,6.823903421493415777e-14,1.468769191285881209e-14,9.009209207287744411e-20,4.197137322844582631e-37
9.999976158142089844e-01,1.997820618271362036e-06,4.172081560227525188e-07,3.557026062583901194e-10,2.437938024439534730e-23
9.999703168869018555e-01,3.797111247649809229e-08,2.971275534946471453e-05,1.189021884423491215e-11,4.321747121048102877e-27
9.999680519104003906e-01,1.795984611030476685e-10,3.190982170053757727e-05,1.503645794064900707e-15,3.314706749039117295e-25
9.999954700469970703e-01,2.109830710139704024e-08,4.483244993025436997e-06,3.712553042767297029e-10,9.977004283730039085e-26
9.993647933006286621e-01,6.334339268505573273e-04,1.775768964762391988e-06,3.110757518243190134e-08,1.750525414179963022e-21
9.993153810501098633e-01,6.845309399068355560e-04,9.316920568380737677e-08,8.790509010807301404e-13,7.029527693510857883e-25
1.000000000000000000e+00,1.512390074287495167e-10,1.491286418694157991e-15,4.301604730104708132e-15,1.487792210736802080e-37
9.995294809341430664e-01,4.569622105918824673e-04,4.197745449852074984e-12,1.355074800812872127e-05,1.854642032681731195e-26
9.999986886978149414e-01,1.330692271039879415e-06,1.222444645510023520e-10,1.617123275565734986e-11,1.525680101856769478e-26
1.000000000000000000e+00,2.449618730082647744e-09,2.158074066671566982e-12,7.193223794388359238e-10,1.813236464807350012e-27
1.000000000000000000e+00,9.149245250306137223e-10,6.687770319089778037e-14,2.474942559921311513e-12,2.599029470737998197e-32
9.891904592514038086e-01,1.080951187759637833e-02,5.672994873862080567e-08,6.094772690007355109e-12,2.335039383061448761e-17
9.999996423721313477e-01,5.795425250809671525e-10,2.997621777467429638e-07,2.149496899916947257e-11,3.650663133569148579e-25
1.000000000000000000e+00,1.269409466431170586e-08,4.978655682164045970e-11,6.510535383377757945e-13,5.147115183922941371e-28
9.999994039535522461e-01,6.223690434126183391e-07,2.841751944870907209e-09,3.168520879156221104e-14,9.099611795986564565e-31
1.000000000000000000e+00,5.248183221340241289e-09,5.850983082365465715e-14,6.675666421561421426e-13,3.606008190618635694e-28
9.999996423721313477e-01,6.883498770982043879e-10,3.702281787809624802e-07,1.621247530824332546e-15,6.335980002457583453e-30
9.999965429306030273e-01,3.216430499719535874e-08,3.504201458781608380e-06,1.654211490009771524e-12,6.077393781545924448e-25
1.000000000000000000e+00,2.553677408423382644e-11,7.201085329433271759e-15,3.624162813725532485e-17,0.000000000000000000e+00
9.999903440475463867e-01,9.692362255009356886e-06,3.867453579609048120e-11,5.557802551514612333e-10,2.206700426360675475e-22
1.000000000000000000e+00,5.749642184582626214e-08,3.802664849672510172e-09,6.454688346313464109e-12,3.809542844461253882e-30
1.000000000000000000e+00,3.490534684208457250e-12,4.423182198114161690e-13,1.123260230488642986e-12,2.332188495751195965e-27
1.000000000000000000e+00,1.514545111547249689e-08,6.074786398739540072e-13,6.530072128425960234e-17,1.466274011648476621e-38
7.750727534294128418e-01,2.249257862567901611e-01,1.522534148534759879e-06,3.476309906602637056e-09,6.273109463753097251e-18
9.999951124191284180e-01,4.308669758756877854e-06,1.052078757446395230e-09,6.144056214907323010e-07,8.169908469364812891e-25
9.995899796485900879e-01,4.100593505427241325e-04,3.416994687199803593e-08,4.240773097269334713e-12,2.747179517647065258e-18
9.969165325164794922e-01,7.483693771064281464e-04,7.308924978133291006e-06,2.327771158888936043e-03,4.395306782678808943e-26
9.210329651832580566e-01,7.888413965702056885e-02,8.286320371553301811e-05,3.693546579697226662e-09,5.591498473541412476e-19
9.999970197677612305e-01,2.133278513838376966e-07,2.760084498731885105e-06,6.029820306258093510e-12,6.943454117177221091e-28
9.999959468841552734e-01,2.700341383388149552e-06,1.169549477708642371e-06,1.630999406643240945e-07,1.116194772080927927e-20
9.996838569641113281e-01,3.161700442433357239e-04,3.934871905305475925e-13,4.856490643662114692e-13,1.083795968011726492e-26
9.999996423721313477e-01,2.364532463161594933e-07,6.345508296590196551e-08,1.847539265673048270e-12,3.695294081158187630e-22
1.000000000000000000e+00,1.340683675188358848e-09,2.425099034889140193e-14,2.369004244075906263e-13,1.087368779910858697e-27
9.999063014984130859e-01,9.080170275410637259e-05,4.802108222179413133e-08,2.822246869982336648e-06,1.511215655549799097e-18
9.999873638153076172e-01,1.257801613974152133e-05,8.804272866314022394e-10,1.822103579129930040e-11,3.792609149882795057e-19
1.000000000000000000e+00,1.092709478456299621e-09,3.716470331482923939e-08,7.679308035822562939e-13,2.947751683627655551e-31
1.000000000000000000e+00,2.061102621908617039e-09,2.711554071554989065e-12,7.959056330664182610e-11,4.362252990748963564e-29
9.999994039535522461e-01,4.250677250183798606e-07,1.037461814235030033e-07,1.809859817569758889e-08,7.686038154556011027e-22
1.000000000000000000e+00,1.256634336518902550e-12,8.931388479271537562e-14,2.222122164808541398e-21,0.000000000000000000e+00
9.998784065246582031e-01,1.216289601870812476e-04,4.832107602936730473e-09,1.245491043633251138e-09,3.253152068919886166e-20
9.999992847442626953e-01,7.009184059825201984e-07,5.956453108524328854e-10,3.210138643794380187e-08,6.701503394129675710e-22
9.999974966049194336e-01,2.516739641578169540e-06,1.652273207142229694e-09,6.648000292625022567e-13,2.088177655602984959e-29
1.000000000000000000e+00,1.198660198875600713e-10,6.043136043659691481e-12,8.907994870547873099e-18,1.173267156369463905e-33
1.000000000000000000e+00,3.293942784073707226e-15,1.715575502110735584e-16,2.792596127673230666e-19,8.825489903941325271e-35
9.999996423721313477e-01,3.162977861848048633e-07,1.305856281159781096e-18,5.771660479734173899e-15,0.000000000000000000e+00
1.000000000000000000e+00,9.535163769669452449e-10,6.104600158707285118e-10,5.088467425196085969e-10,1.960358759702861730e-20
9.999998807907104492e-01,1.035571295382453627e-09,6.207460501173045486e-08,7.972474902473436487e-10,3.454764660870685605e-21
9.999973773956298828e-01,1.254142375728406478e-06,1.344313204754143953e-06,2.880056193532709585e-10,6.165094720101062644e-20
1.000000000000000000e+00,5.528443258739912380e-10,9.096382536100122707e-10,5.590056195714510068e-11,1.901230985546082801e-23
9.999990463256835938e-01,9.346400702270329930e-07,2.398622966914842891e-10,4.435174016242937611e-13,2.843759507012104439e-30
9.999941587448120117e-01,5.308986146701499820e-06,1.838845875568040356e-08,4.702785361132555408e-07,1.425107472102130173e-20
9.999996423721313477e-01,3.098846548255096423e-07,6.529283000768562606e-14,1.086721424653491752e-12,1.218883529279925353e-25
9.999697208404541016e-01,3.027017737622372806e-05,2.598664172737130684e-09,1.987835590577802236e-11,5.214653701423612079e-18
1.000000000000000000e+00,1.054860226945564250e-10,1.145953262837728914e-10,1.212139722904688466e-14,7.975710738577799848e-30
1.000000000000000000e+00,4.759255142761098512e-11,1.198611547945853222e-15,2.328644818205133360e-13,8.488972647087752922e-36
9.971114397048950195e-01,4.344444448634021683e-07,2.888072747737169266e-03,5.947419206425719196e-12,1.747272348706513512e-20
9.999998807907104492e-01,2.214643224363044283e-08,9.068966733138950076e-08,1.391958464859672021e-14,1.563138408589899471e-33
9.993255138397216797e-01,6.744848215021193027e-04,3.975596740701803355e-08,2.279094779567003570e-08,6.564993046909988893e-17
9.999998807907104492e-01,1.114164547288964968e-07,2.088432182745236787e-08,4.884778779384868486e-12,3.860291549885688263e-29
1.000000000000000000e+00,6.940807650845925991e-11,2.023595592308413682e-15,2.111499863843846470e-11,1.116882439248762019e-32
1.000000000000000000e+00,3.509947665847334974e-09,4.027529991370432105e-13,7.819601632874650932e-10,2.040137138699568223e-29
9.744591116905212402e-01,7.702589755353983492e-06,6.566444881173083559e-06,2.552661113440990448e-02,3.880224844147447732e-18
1.000000000000000000e+00,1.900838156581458049e-13,1.853856196318524608e-22,1.483425902485620718e-18,0.000000000000000000e+00
9.999723434448242188e-01,6.749899057467700914e-06,1.163882461696630344e-05,9.138546374742873013e-06,1.073591033413225191e-16
9.999990463256835938e-01,9.800073712540324777e-07,3.983575622146240391e-12,2.920490932423192021e-11,8.124657928727138364e-25
9.999698400497436523e-01,2.920865540545491967e-07,2.990032226080074906e-05,3.887918632872189306e-12,1.534391005958035171e-26
1.000000000000000000e+00,5.040489510152457164e-13,3.247046593190736075e-15,2.036294072025633737e-16,0.000000000000000000e+00
9.999983310699462891e-01,6.901826736793736927e-07,9.213021030518575571e-07,4.455951718718154098e-10,1.122542050422886953e-21
7.294809818267822266e-01,8.213969995267689228e-04,2.696966230869293213e-01,1.039759013110597152e-06,4.060523127518946654e-19
9.999986886978149414e-01,4.866687959292903543e-07,8.273794946944690309e-07,1.811086142167184221e-10,1.971601638140685247e-24
1.000000000000000000e+00,4.919069040987267272e-10,1.039723640516854175e-09,2.240564405236582799e-16,3.779971622004550898e-36
1.000000000000000000e+00,5.717321061027291762e-10,2.991629444171195473e-10,3.066626064196498191e-09,2.013976916292074898e-30
1.000000000000000000e+00,2.736335602548933821e-09,6.859679491100223458e-12,9.973723507240156438e-14,1.340120435056077945e-29
9.999988079071044922e-01,1.190043462884204928e-06,1.570230230563129936e-11,2.071443364060066017e-11,5.902263964405308307e-30
1.000000000000000000e+00,1.344911543244009522e-10,1.626070510783399543e-18,9.343555660082381031e-13,0.000000000000000000e+00
1.000000000000000000e+00,1.014486494810284967e-09,3.308611606911426861e-09,1.079123362933767649e-15,5.686542883515286051e-29
9.990317821502685547e-01,9.671475854702293873e-04,1.029472059599356726e-06,2.153691447404071369e-08,5.403120269266980266e-17
9.999969005584716797e-01,2.375138137722387910e-06,6.659559517174784560e-07,8.008776801460282257e-12,2.819415912382281490e-31
9.999961853027343750e-01,1.840453251134022139e-06,1.984027676371624693e-06,8.750371260912714888e-11,1.002512995119630803e-23
9.936972260475158691e-01,6.302802823483943939e-03,4.922876328805614321e-08,2.114930279517590606e-11,1.461067584132837092e-23
1.000000000000000000e+00,1.004262184522985990e-08,1.357666018352726451e-15,2.309194561573592840e-15,0.000000000000000000e+00
9.999066591262817383e-01,9.244705142918974161e-05,7.808042141732585151e-07,8.526104267048140173e-09,8.816418124984782217e-21
9.999994039535522461e-01,3.118497104992457025e-08,6.361700002344150562e-07,2.203909848537541002e-15,8.648955356196284187e-32
1.000000000000000000e+00,9.353608998452500600e-10,2.053608368426940167e-12,3.297534997863453511e-17,2.289931080034615692e-30
9.984287619590759277e-01,2.034666540566831827e-04,2.979930059154867195e-06,1.364807831123471260e-03,1.699485449533150107e-16
9.999995231628417969e-01,5.303136845213884953e-07,8.598744112575662513e-12,4.518259724695106172e-11,1.700265482942972950e-22
1.000000000000000000e+00,1.693808461544765720e-11,5.911059142160723923e-11,5.207044516599573531e-16,0.000000000000000000e+00
9.314588904380798340e-01,2.521219663321971893e-03,5.756071768701076508e-04,6.544420868158340454e-02,1.393711188124591160e-11
1.000000000000000000e+00,1.355789525092632175e-08,9.209881121630125733e-13,8.696357869930615436e-12,6.349302302662028903e-26
9.999977350234985352e-01,2.149256260963738896e-06,8.775167970043185051e-08,6.360988402676071019e-10,3.122056995774273132e-19
1.000000000000000000e+00,3.792345637521066237e-08,2.778546435901890765e-13,4.150554122617222674e-09,7.559732440081692692e-28
9.998834133148193359e-01,9.110411156143527478e-06,1.074738538591191173e-04,1.996120424507807911e-08,1.968345585305261296e-17
1.000000000000000000e+00,9.784560661696417583e-11,2.294458845142344217e-09,1.067446074078691259e-16,1.041103224118313543e-27
9.999966621398925781e-01,3.381737997187883593e-06,9.264909728301518044e-09,5.020481168922959203e-15,4.554379761206011189e-33
1.000000000000000000e+00,1.137617910984545233e-08,7.472449274745131959e-15,2.286931494871469184e-12,6.299193209438395302e-34
1.000000000000000000e+00,4.822104382462555350e-10,3.527566117629468007e-16,4.050106333208097764e-14,3.209688243275217620e-34
9.837383031845092773e-01,1.623974740505218506e-02,1.097603035304928198e-05,1.092527600121684372e-05,3.824671048618943914e-12
1.000000000000000000e+00,8.791969818844336260e-09,8.628723278426841947e-14,1.441809860521989228e-13,1.521602315703593942e-33
9.999985694885253906e-01,1.372500832985679153e-06,1.800168486498776588e-10,1.144081530901619459e-11,4.992108629034415347e-24
9.999992847442626953e-01,7.223201805572898593e-07,1.361985724201986159e-08,1.883104339128749416e-09,3.924503801839649542e-23
1.501827314496040344e-02,4.645644147149852188e-10,9.849816560745239258e-01,1.547249155464669457e-07,3.416116169407707338e-16
1.000000000000000000e+00,2.426518708187330731e-11,1.319055556699356068e-16,1.508429340636718852e-13,4.284184010420202498e-36
9.978154897689819336e-01,2.128042513504624367e-03,5.576468174695037305e-05,7.682062914682319388e-07,3.912690755159681233e-13
1.000000000000000000e+00,5.315867815651898615e-15,6.030702636762325791e-15,4.969439718220326443e-20,0.000000000000000000e+00
9.998304843902587891e-01,1.695043029030784965e-04,2.704679579260127475e-12,5.584339414499428500e-13,4.839832047486435165e-22
9.987768530845642090e-01,1.221882528625428677e-03,1.286792780774703715e-06,1.343402944442573244e-09,3.674676936436110930e-14
9.998949766159057617e-01,9.963966294890269637e-05,1.621201874968392076e-07,5.253928975434973836e-06,5.978909547406388679e-19
9.999027252197265625e-01,9.719859372125938535e-05,1.052107094778875762e-07,4.152884258701305953e-08,4.661983645776208573e-17
9.999626874923706055e-01,1.195096228912007064e-05,2.522420072637032717e-05,6.024084342470814590e-08,1.096836281007455613e-17
9.999806880950927734e-01,1.773271947058674414e-07,1.923787749547045678e-05,3.050078939415001855e-11,3.952118666687816282e-23
1.000000000000000000e+00,5.165529159967263695e-08,1.130736997090320273e-11,1.292979945333172509e-09,4.566835095536352020e-25
1.000000000000000000e+00,6.283283615626800156e-11,2.119543651701860654e-09,1.140568217129767081e-12,7.835079909410214772e-26
1.000000000000000000e+00,3.586188057624895009e-08,2.921177788550721743e-08,8.785280445830490059e-13,8.971586403004265590e-35
9.999989271163940430e-01,1.041532300405378919e-06,8.900192249861049731e-10,1.602749044593565486e-08,5.256417753283381811e-22
9.999976158142089844e-01,8.051578248569057905e-08,2.269272272314992733e-06,1.618886795451413008e-11,5.064855249324262630e-26
1.000000000000000000e+00,2.034371004988599907e-10,3.369890130833219644e-11,6.935153406412153387e-12,2.436572165400034199e-27
1.000000000000000000e+00,6.967697530058103439e-10,5.717519556761030408e-13,2.170535162228945467e-17,8.818171176930769859e-31
9.999948740005493164e-01,5.155350663699209690e-06,5.409598550359939750e-13,5.174041316918787103e-12,6.203827772876930047e-24
3.423007428646087646e-01,6.576983332633972168e-01,9.452221547689987347e-07,1.294423324083027182e-08,1.765256154989127638e-15
9.999891519546508789e-01,1.055915345204994082e-05,4.345460880017526506e-08,2.749864904671994736e-07,4.955555339127198434e-17
1.000000000000000000e+00,2.107313656907194854e-09,5.390319470616709852e-15,3.132571784435211892e-13,5.747576689609697714e-32
1.000000000000000000e+00,4.132235886800117441e-09,1.394053206205114748e-09,1.676258822502427193e-13,1.241761387236898947e-28
9.993758797645568848e-01,2.016626723388981191e-07,7.373869448201730847e-05,5.502228741534054279e-04,3.003513778833399872e-14
1.000000000000000000e+00,1.844527863781308952e-10,6.835536581206724804e-10,1.412922424425097547e-17,2.121067595674634570e-36
1.000000000000000000e+00,8.594580158671760728e-09,4.933093626787680291e-15,5.303472591644542433e-11,8.253084711417037834e-32
9.999997615814208984e-01,2.024578265036325320e-07,2.923379940900083795e-11,2.275817555241754775e-12,1.494537905686310402e-30
9.594749808311462402e-01,4.052491486072540283e-02,1.061410443981003482e-07,2.597338788490333172e-09,2.654717459027428712e-16
1.000000000000000000e+00,4.187300106650582165e-08,2.142127180661517610e-14,1.253350288138443958e-12,9.973756226952954316e-30
9.683702588081359863e-01,3.162772580981254578e-02,2.010111984418472275e-06,7.981780214549871744e-08,1.526581879596466985e-18
1.000000000000000000e+00,5.449370399368547169e-10,1.276290878537977846e-10,1.043993925055157479e-13,1.813203342221240169e-33
9.999997615814208984e-01,2.805971348607272375e-07,4.620250015907600982e-11,6.391795426274882175e-10,9.183986643910056308e-28
9.998099207878112793e-01,3.634418681031093001e-05,1.537697244202718139e-04,2.812947874630822298e-09,2.367280362621654310e-13
9.999984502792358398e-01,1.653316701322182780e-07,1.401245526722050272e-06,1.529838572717021755e-14,4.816267780283723991e-33
1.000000000000000000e+00,2.735475691448274738e-12,4.521806784259577161e-14,1.552375348574522272e-20,4.934108659617799009e-38
9.999997615814208984e-01,1.968832350485172356e-07,3.267559733899361163e-08,6.254945292185482009e-14,3.071142739804702440e-25
1.000000000000000000e+00,3.550483640424317855e-08,6.864662053992229632e-17,9.439905725595193475e-14,6.828853404972052645e-32
1.000000000000000000e+00,8.601055773061903800e-17,2.978901241556724820e-19,1.389594508283949597e-26,0.000000000000000000e+00
9.999997615814208984e-01,2.709293482894281624e-07,5.044973860890422657e-08,1.570833418895745126e-08,2.079461706187340344e-22
9.998766183853149414e-01,1.013856162899173796e-04,2.032515658356714994e-05,1.606380010343855247e-06,3.359984626073740445e-21
1.000000000000000000e+00,7.793916068088435622e-10,4.289319821635523278e-13,2.481761463002385426e-10,5.077140657133746050e-30
9.999940395355224609e-01,5.941003109910525382e-06,1.898761592400433074e-09,7.796664980297407510e-10,1.039343327761444119e-19
1.000000000000000000e+00,1.918833763298613765e-16,4.029727398123517101e-13,1.772464418605151535e-18,2.632554036977572121e-34
1.199181497213430703e-05,3.413639149130176520e-07,2.917155798058956861e-04,9.996960163116455078e-01,6.822567481129006295e-15
1.000000000000000000e+00,2.009570509997615773e-09,5.116929883280940672e-12,3.546434250868008009e-13,3.527108650560370145e-31
1.000000000000000000e+00,1.552775594736155451e-12,4.802774418244164180e-17,1.405098815077110430e-10,1.253190857579118461e-37
1.000000000000000000e+00,3.097175182986688924e-09,6.864231405501186600e-09,1.618332339881414783e-14,1.051513859615106949e-32
9.385122060775756836e-01,6.148779019713401794e-02,2.567628776262154133e-09,3.547374525202096063e-13,4.524775497260296486e-25
9.835341572761535645e-01,1.646556891500949860e-02,2.242508543304211344e-07,1.739029809044723152e-09,6.519155681125490731e-19
9.999898672103881836e-01,2.979966211569262668e-07,9.873149792838376015e-06,2.029968207417631731e-12,3.596041695749426187e-27
1.000000000000000000e+00,2.710882185397167632e-08,2.762745544490630145e-13,1.428730614719264658e-12,1.032823386472025463e-28
9.997786879539489746e-01,2.212315157521516085e-04,1.503223785448426497e-07,6.539461680499236707e-12,5.686119758632434119e-25
9.971302151679992676e-01,2.869543153792619705e-03,1.084573639786867716e-07,1.731438885599345667e-07,1.278614948841725374e-19
9.807532429695129395e-01,1.920989900827407837e-02,1.088594399334397167e-05,2.596252488729078323e-05,2.227741645668968040e-12
1.000000000000000000e+00,6.797802598601521140e-11,3.090026498564490964e-11,5.467202695784014618e-18,2.665287208992294632e-31
9.998077750205993652e-01,1.921802177093923092e-04,1.308514363529411639e-08,7.080592467900714837e-08,2.869583779114747085e-23
1.000000000000000000e+00,1.725644516170632414e-08,3.089527245148104839e-10,3.631011880056433938e-10,1.294507938033550198e-27
9.991882443428039551e-01,8.115084492601454258e-04,1.806245109037263319e-07,1.156153853210106774e-10,1.347353347754100658e-22
1.000000000000000000e+00,8.359790193424032623e-09,3.473933640751880603e-10,1.232082584252198933e-15,1.474753814871037096e-33
9.998126626014709473e-01,4.266268328195765847e-13,1.874205336207523942e-04,3.925754686606719446e-12,8.529212472165308065e-30
9.999998807907104492e-01,1.314558457612058015e-14,1.281417496556969127e-07,2.631162266857674670e-16,7.005554009661246609e-33
1.000000000000000000e+00,8.702114744603222339e-16,2.114511482576020285e-10,2.291832969605368808e-14,6.716843422130785759e-28
9.994636178016662598e-01,5.364225944504141808e-04,2.400417680652276037e-14,1.776361696625983200e-11,7.420610191613851222e-32
1.000000000000000000e+00,5.270339165086568300e-10,8.680884483469597512e-11,1.624601913644357584e-17,3.915672558141850733e-36
9.999998807907104492e-01,3.417326865928771440e-08,1.759450753979763249e-07,9.642890869479558980e-13,2.853081124521885607e-25
9.999366998672485352e-01,2.466638271414467454e-08,6.327485607471317053e-05,3.603793485851269907e-09,3.531888283154616304e-19
9.999951124191284180e-01,5.313425255337733688e-09,4.847528543905355036e-06,2.974748225526013812e-11,3.012231470219412364e-26
1.000000000000000000e+00,4.543399256817792775e-08,1.980327794109948414e-14,1.612988006676537456e-15,5.423548806251068108e-37
1.000000000000000000e+00,2.847492797108941431e-10,1.282770417665446416e-10,4.595076763536098952e-09,1.526051105605685249e-23
1.000000000000000000e+00,2.310364788371543909e-09,6.630772753785096896e-12,5.992785398784389149e-18,0.000000000000000000e+00
1.000000000000000000e+00,1.802203364320575929e-08,3.846243636085322493e-12,2.843357916779167796e-17,1.673911551729652823e-38
9.999760389328002930e-01,5.480143561165107258e-10,2.390945883234962821e-05,1.751964187873128465e-13,6.648190760368186156e-27
9.997267127037048340e-01,2.733221626840531826e-04,6.248707662415142750e-10,4.143681578416824607e-11,7.618251369786983140e-20
9.989792704582214355e-01,1.018313574604690075e-03,2.378516455792123452e-06,1.473928271100710674e-11,1.518515969347886562e-22
1.000000000000000000e+00,2.995497513230693798e-12,6.006058150820337005e-11,8.607390653065079907e-17,2.324732671745512271e-30
1.000000000000000000e+00,4.389966612450280081e-09,1.116979599091738606e-11,1.524527845544326743e-14,7.456332571559633914e-30
9.999736547470092773e-01,2.632724499562755227e-05,4.189644117746915697e-11,1.011227282465831934e-10,1.277323451516117480e-22
1.000000000000000000e+00,3.277359894582332345e-08,1.105093083708652557e-08,1.782427524533222035e-15,9.200644974964033705e-28
1.000000000000000000e+00,7.671721591329117018e-10,1.181291175988974373e-09,2.638766809226478216e-12,3.373280441142272690e-29
9.985534548759460449e-01,1.416621264070272446e-03,2.885173489630687982e-05,1.086215547729807440e-06,4.422996277558612923e-17
9.998627901077270508e-01,1.371002435917034745e-04,1.352427574374814867e-07,4.351477844721785004e-09,9.378438954686381634e-18
9.999690055847167969e-01,3.085211210418492556e-05,6.115659978433996002e-09,1.585127051839663181e-07,1.687586224811003289e-16
9.996734857559204102e-01,2.998103445861488581e-04,6.332740667858161032e-06,2.042614141828380525e-05,4.242810002713859807e-16
1.000000000000000000e+00,1.983522374127133503e-10,7.114448258489260157e-15,8.583954707252431510e-15,1.249798450763718197e-34
1.000000000000000000e+00,7.222943770868184288e-11,1.026537432835539221e-08,2.434760896610087967e-19,2.370514506550354163e-35
9.999985694885253906e-01,7.528914807153341826e-07,7.174699021561536938e-07,1.591549447788054295e-09,7.079940638519911863e-24
9.998615980148315430e-01,1.307858910877257586e-04,6.233702833924326114e-07,6.996816409809980541e-06,3.530268152731209225e-16
9.999915361404418945e-01,1.387110501127608586e-06,1.881784754687032546e-07,6.782111540815094486e-06,1.082932978340279928e-22
9.999957084655761719e-01,7.024024029078645981e-08,4.183797955192858353e-06,8.701052777045602260e-15,3.630640879746331512e-30
9.998204112052917480e-01,1.477351033827289939e-04,3.183143780915997922e-05,6.808278385506127961e-09,1.074213801152804114e-17
9.999996423721313477e-01,3.134549615424475633e-07,3.911121737587563985e-08,9.447365556525255670e-09,2.127054555501763350e-21
9.968041181564331055e-01,3.177664475515484810e-03,1.818754753912799060e-05,8.454856814665845377e-10,8.372812633141244112e-19
1.000000000000000000e+00,2.121987030534455698e-09,1.207256789722004238e-15,9.223212722476518120e-19,0.000000000000000000e+00
9.999998807907104492e-01,7.224204345845919306e-09,1.014007580124598462e-07,8.418331587378702352e-10,1.153596463749339997e-35
1.000000000000000000e+00,1.038043317969084001e-09,4.983915921260293532e-16,6.320550636693123003e-13,1.517274881657203482e-30
1.000000000000000000e+00,1.124759937964903145e-10,4.659668003282203125e-15,2.528168375603295770e-13,1.093581320029022307e-31
9.999961853027343750e-01,3.792873712882283144e-06,1.317331009900724048e-12,9.481572194047771518e-10,8.090636021888428076e-27
1.000000000000000000e+00,4.673211151384748518e-09,6.186403386093664025e-14,1.538210639591419682e-12,1.459952157307716332e-28
1.096210093237459660e-03,6.160078644752502441e-01,3.828958272933959961e-01,1.041642718746516039e-07,2.695584380707494176e-11
1.000000000000000000e+00,4.924236097379123666e-16,5.077462074518935951e-18,3.724844368905659808e-23,0.000000000000000000e+00
9.999998807907104492e-01,7.647695809964716318e-08,1.368068310546310951e-12,1.139048490944594150e-12,2.850331178710037487e-31
9.999125003814697266e-01,1.332579631707631052e-05,7.414896390400826931e-05,5.656113077900926100e-11,5.152629911447222412e-23
9.999974966049194336e-01,4.811630560652702115e-07,2.002803284995025024e-06,1.046503920847097202e-12,2.522987908043572874e-21
9.999998807907104492e-01,6.627359283584155492e-08,1.874783883692998643e-09,2.697870260526258335e-10,1.136883126653117841e-33
1.000000000000000000e+00,6.576841155014889750e-11,1.334249178426994559e-14,5.271937886242028526e-10,2.431237820184251268e-31
1.000000000000000000e+00,1.064930255090246192e-09,4.099769060751743549e-15,1.111177393587486906e-13,1.915771265783700805e-29
9.714695215225219727e-01,2.828812226653099060e-02,2.410560846328735352e-04,1.238419713445182424e-06,7.649049037390664996e-14
9.999996423721313477e-01,2.834842405263771070e-07,7.407395941072536516e-08,2.406848409464146243e-08,8.586410417855147696e-22
9.999996423721313477e-01,3.125800276393420063e-07,1.242553082647646079e-08,6.935730212376256532e-09,1.781509272682498005e-30
9.998904466629028320e-01,4.767498921864898875e-06,1.047906989697366953e-04,2.021025360954276096e-11,0.000000000000000000e+00
9.999363422393798828e-01,2.957979995699133724e-05,3.404390008654445410e-05,1.749180356114266033e-09,3.065432863929838468e-19
1.000000000000000000e+00,4.850402024469957496e-11,2.465533419787613312e-12,2.547541604752678879e-12,2.614955155189520509e-29
9.999758005142211914e-01,2.422585203021299094e-05,5.684280268702934791e-10,5.495912702713212639e-08,4.389460121590835948e-27
1.000000000000000000e+00,6.674695518515960657e-14,2.739327050733068739e-17,9.399452340774949042e-20,0.000000000000000000e+00
1.000000000000000000e+00,1.498606794214651927e-10,1.208461174011243866e-12,2.809077196384585778e-15,1.750771528593248228e-34
9.957056641578674316e-01,6.955504431971348822e-06,9.127743965109402779e-07,4.286411218345165253e-03,4.472096664064479640e-19
1.000000000000000000e+00,2.032638279914067425e-09,1.589737905186472573e-16,7.613960528144066153e-15,0.000000000000000000e+00
1.000000000000000000e+00,5.838256100787475589e-09,1.267499993851117779e-09,7.339017709811378925e-17,3.015246095203604803e-34
1.000000000000000000e+00,1.446699648965932283e-09,1.277546513023253283e-08,5.174508723781004774e-17,4.244695407139894913e-32
9.999277591705322266e-01,7.408792498608818278e-06,6.485719495685771108e-05,5.704254402161268445e-09,2.535172351167899997e-19
1.000000000000000000e+00,5.045982742757360029e-09,9.132306889869656885e-12,6.109579422236555146e-12,3.953278607762853257e-24
1.000000000000000000e+00,4.216987292693374911e-08,8.816969235877353261e-14,3.115007167139860478e-13,3.099408689152100595e-28
1.000000000000000000e+00,3.328323217033357651e-08,6.764874034212442488e-14,1.355538511299547721e-12,3.082641543056265319e-28
9.471695423126220703e-01,5.283028259873390198e-02,1.897492829527891445e-08,2.347328091900635627e-07,2.001839948104881003e-16
9.999989271163940430e-01,5.495240884556551464e-07,5.175918715849547880e-08,4.522943584106542403e-07,2.010693510876420224e-26
9.913171529769897461e-01,3.684635157696902752e-05,8.645914494991302490e-03,1.055501499536148913e-07,1.304595415568180198e-20
1.000000000000000000e+00,5.052628093693556366e-09,1.144622938098471820e-10,4.041658074237786656e-17,1.127807391909808201e-34
9.999998807907104492e-01,7.249888467342202603e-10,1.441910342236951692e-07,1.529943500246851862e-17,1.498705738456585905e-30
1.000000000000000000e+00,7.207383023732916172e-10,2.735037796242067998e-08,3.781681727748481547e-13,5.491827261981025017e-25
9.999989271163940430e-01,1.129535803556791507e-06,3.220608662027855951e-14,3.442393245456365491e-11,5.230331080932906558e-31
9.999998807907104492e-01,7.060800388813959216e-09,8.962746278484701179e-08,1.025194333590360396e-17,1.084919655581471593e-35
1.000000000000000000e+00,8.193555556257337003e-11,1.045049935477493364e-09,1.396237726131177581e-13,1.971525950634614784e-27
1.000000000000000000e+00,1.852933258217337453e-11,5.113563313562628776e-16,3.528157041694790497e-13,4.921090009459905213e-35
1.000000000000000000e+00,1.974665569948186317e-11,2.058529613333345181e-16,4.195521561460927029e-14,2.518986359420013474e-34
1.000000000000000000e+00,2.811331611951572995e-09,7.063130462447997360e-13,2.867061048547115722e-15,4.829278580014726960e-27
9.991901516914367676e-01,4.934235562359390315e-07,6.458388684960070236e-11,8.093265932984650135e-04,1.682156902420376985e-27
9.997656941413879395e-01,2.342065708944573998e-04,1.168467544943041503e-08,8.197680756438785465e-08,3.348787193597122348e-21
9.999998807907104492e-01,2.373863239313322993e-08,1.620572760430150083e-07,9.341710381866128593e-15,1.462371245688488224e-28
9.999074935913085938e-01,9.254054020857438445e-05,1.136123764511332013e-10,4.324130742361376178e-08,4.956075829466635191e-25
9.999998807907104492e-01,1.228378429764517073e-17,1.552018460415638401e-07,2.236741410834744090e-21,0.000000000000000000e+00
9.999998807907104492e-01,1.010970685421871962e-13,9.568585568331400282e-08,6.342093733860409976e-13,1.156746325593339198e-29
1.000000000000000000e+00,2.580882352276603342e-08,7.569641580218444687e-10,5.740806940934817248e-09,1.997507448447735783e-34
9.998893737792968750e-01,1.092641468858346343e-04,1.167883397101832088e-06,1.136249068167671794e-07,4.564856592943012461e-22
9.999942779541015625e-01,1.641123617446282879e-06,4.026860551675781608e-06,1.098837998370072455e-08,5.825469951002631545e-22
1.000000000000000000e+00,2.510755839346678897e-11,6.681337654426797341e-16,1.309590334090703686e-15,2.099207454425537621e-34
9.999586343765258789e-01,4.092975359526462853e-05,1.727819309849110141e-08,5.260648663352185395e-07,1.903230629296137920e-20
9.999989271163940430e-01,1.082510038941109087e-06,3.630466066661952595e-11,3.069333415900432627e-12,1.932987414520085771e-25
1.000000000000000000e+00,5.286026727446824225e-09,1.391919690618692584e-09,2.709116819765711170e-10,1.051651318985756230e-30
9.999994039535522461e-01,6.081792207623948343e-07,3.922092143247846163e-13,1.911109881458372683e-10,1.692278613376408503e-24
9.999998807907104492e-01,6.153447174028769950e-08,8.206327978266259038e-12,1.685083045321889017e-10,8.887020010065644857e-25
9.999947547912597656e-01,5.143976068211486563e-06,1.265448617004949483e-07,1.056893950135417981e-08,4.633507518919249005e-19
1.000000000000000000e+00,6.662527418654917710e-09,9.036174044262101912e-13,4.293412736444679467e-09,4.875900538171277586e-30
9.996602535247802734e-01,3.382087161298841238e-04,1.260994395124725997e-06,2.426775154162896797e-07,2.722834227371618941e-17
1.000000000000000000e+00,9.958636582041435759e-09,6.705486721436670905e-10,4.622313003275341226e-15,1.651149029801307275e-32
9.999983310699462891e-01,1.651143065828364342e-06,5.068180250478171445e-12,1.009433092669098642e-10,1.198619202313132716e-29
1.000000000000000000e+00,1.176319783767476590e-13,1.838110199936298858e-15,8.766840634918761691e-19,4.784841001951393743e-37
9.999306201934814453e-01,6.925160414539277554e-05,8.605539197903411264e-11,1.100998687775245344e-07,6.897208401472368664e-31
1.000000000000000000e+00,4.590800783599080287e-17,1.353625816778111248e-17,7.598866752609682186e-24,0.000000000000000000e+00
9.999990463256835938e-01,9.067027235687419306e-07,1.517832387554207685e-11,1.419965165415371100e-12,1.823401559165012300e-29
9.999380111694335938e-01,5.816904740640893579e-05,3.813093144344747998e-06,2.206028071327637008e-08,1.451505648882052937e-19
9.999957084655761719e-01,4.331475793151184916e-06,3.980257456959179763e-09,1.931810267308264883e-09,5.695412047057871875e-24
9.999977350234985352e-01,8.417740282595786994e-09,2.294378191436408088e-06,4.007714338172263524e-08,3.038021182103833851e-25
9.999994039535522461e-01,5.645939609166816808e-07,1.734087526350513997e-11,4.417783916466078153e-09,7.458171832441704289e-24
1.000000000000000000e+00,4.724766000663294108e-08,8.980952696883417671e-16,9.899779780664363926e-12,2.570845175334209926e-34
1.000000000000000000e+00,4.347768618653130579e-13,3.017159855289719417e-09,3.954311379207597898e-13,3.661620398526463497e-21
1.000000000000000000e+00,2.148142080882209370e-10,5.384910295447298267e-09,2.074748250806279781e-14,2.904350735496154674e-26
9.999970197677612305e-01,2.441526703478302807e-06,5.592146408162079751e-07,3.315386409852294491e-09,1.495628527023655885e-23
9.999974966049194336e-01,1.604517933628812898e-06,8.138119937939336523e-07,1.000560629904612142e-07,3.211197209757255180e-20
1.000000000000000000e+00,5.216205800628870293e-10,1.826304281187248022e-16,1.538653480486463728e-16,1.050102899052135572e-32
1.000000000000000000e+00,3.058400199762445482e-10,1.375247987118002370e-15,6.101415488297956546e-16,3.304731538964711190e-36
9.963703155517578125e-01,3.271310590207576752e-03,3.582809586077928543e-04,1.270986302870369400e-07,1.220216283700711890e-13
1.000000000000000000e+00,1.177103119837097367e-13,7.832340550901920138e-16,2.460600271527200534e-16,2.282456518688612647e-38
1.000000000000000000e+00,8.466624623615359724e-10,3.227492900469097105e-18,1.212820263055830461e-13,1.458936013911486994e-32
9.999631643295288086e-01,3.680865847854875028e-05,6.626151183297679381e-09,5.175552369486580151e-13,1.748095975027371976e-21
9.999357461929321289e-01,6.430035136872902513e-05,3.749505983474676896e-10,5.287060719783021057e-12,4.427396028869273537e-32
1.000000000000000000e+00,9.048738841554992973e-11,4.070470032287539690e-16,9.561752431497261284e-14,2.023206510021595728e-33
1.000000000000000000e+00,3.448199364930459865e-11,1.877130395566695142e-10,5.010959855196969600e-19,1.477832050301686430e-36
1.000000000000000000e+00,3.361323663852999744e-09,1.656619097306080094e-17,2.978648957260160435e-13,7.071982664794152604e-33
1.000000000000000000e+00,8.455141968510826445e-12,7.585113093178108556e-12,2.316190630201439733e-15,3.580790891474852207e-33
1.000000000000000000e+00,4.986547741565872105e-13,7.982234749999896928e-20,5.943950030524308703e-14,0.000000000000000000e+00
1.000000000000000000e+00,6.316947853690635384e-09,5.652356804830560577e-08,5.116115309178326243e-10,1.691312416539693808e-23
9.999988079071044922e-01,1.226328663506137673e-06,3.832203651632504204e-11,2.461046089141660786e-10,9.823529447118931473e-24
9.729850292205810547e-01,5.519867991097271442e-04,2.641811594367027283e-02,4.488290869630873203e-05,9.395171543958441562e-14
9.999465942382812500e-01,1.315651388722471893e-06,8.872324208653026290e-09,5.205917113926261663e-05,6.056115613101761919e-20
9.999996423721313477e-01,4.100445210042380495e-07,1.397307009681769685e-11,1.112612890707964652e-09,8.160880942380689937e-25
9.999997615814208984e-01,1.725338094615835871e-08,2.365076312571545714e-07,3.125513458885741808e-15,1.903663184964581302e-29
9.991772770881652832e-01,8.194209658540785313e-04,6.805820351729607864e-09,3.287530716988840140e-06,3.352481045336834343e-26
9.999630451202392578e-01,2.212975050497334450e-05,1.106211766455089673e-05,3.698122100104228593e-06,1.822601102152303514e-19
9.999997615814208984e-01,1.874424384595840820e-07,4.184448360727843763e-12,8.623986941236339021e-13,4.126569420290452250e-29
6.867226958274841309e-01,3.132582902908325195e-01,1.904824057419318706e-05,1.988006204101111507e-09,1.993440006532587434e-20
9.999998807907104492e-01,1.044087039048235965e-10,9.193966121756602661e-08,3.063668671730949153e-16,1.050820597128030119e-31
9.999978542327880859e-01,2.002192786676459946e-06,1.209260744872153737e-07,4.236174605543041594e-11,2.414050695001479631e-25
9.999730587005615234e-01,1.180359049612889066e-06,2.570465767348650843e-05,1.372723440994094712e-12,2.108082703709029559e-26
1.000000000000000000e+00,2.296998369288871800e-09,1.226656041205834657e-16,1.545862064386820806e-14,1.406439637813833677e-36
9.999324083328247070e-01,6.752904300810769200e-05,6.438385380391764556e-10,1.069635824357817455e-09,4.253559811378003205e-20
9.999997615814208984e-01,2.812795401041512378e-07,2.249359631889547018e-08,3.379133362013675423e-10,9.392052350905255370e-23
9.995204210281372070e-01,1.085991752916015685e-04,2.483127900632098317e-06,3.685471310745924711e-04,9.556679005898695485e-17
9.998149275779724121e-01,2.341104618608369492e-06,1.827268279157578945e-04,2.479380242781381583e-11,9.726836083838914305e-23
1.000000000000000000e+00,7.593953677692555360e-13,2.375496952257539855e-17,1.971303880960771442e-16,1.948784877505505933e-37
9.997933506965637207e-01,2.459146344335749745e-07,2.064021391561254859e-04,1.473520199087030580e-12,1.064142434198280794e-34
9.999175071716308594e-01,1.677953878242988139e-05,6.572864367626607418e-05,1.632163570963740540e-10,3.003600469099679409e-25
9.328316450119018555e-01,3.145355003653094172e-05,6.986225344007834792e-05,6.706701964139938354e-02,1.026388335717356190e-16
1.000000000000000000e+00,1.967889176265891216e-12,7.282389136165079435e-10,1.928521226176801995e-15,6.576125410929443133e-30
9.963439106941223145e-01,3.656040411442518234e-03,6.109934336251399145e-09,3.067570086834336962e-10,2.173789083963575940e-18
9.999994039535522461e-01,4.528207000475958921e-07,1.533491484906335245e-07,1.179573150267287929e-08,1.455448327723604516e-19
9.998924732208251953e-01,1.074612955562770367e-04,1.576514563339515007e-08,9.750604837432952365e-12,9.504529874265658720e-24
9.999997615814208984e-01,2.810738806147128344e-07,4.501139461154934907e-09,5.309164219369222337e-09,7.084646884072847267e-25
9.999896287918090820e-01,1.028718725137878209e-05,1.078363496276324440e-07,4.221914817748029236e-09,7.736411151648824615e-22
1.000000000000000000e+00,8.811708585021449380e-10,5.373101075178965402e-09,3.875200549106800642e-18,4.286070604236931641e-33
9.999998807907104492e-01,6.059560320181844872e-08,2.736262105784703635e-09,2.375451723345134436e-13,1.207188778063960627e-28
1.000000000000000000e+00,1.006899771893721152e-11,6.371496212576044371e-13,1.370427860932048681e-18,1.124850123916613726e-36
1.000000000000000000e+00,9.554485203011608974e-09,1.213606360452859287e-14,5.669072503100558436e-11,1.167747369843362766e-27
1.000000000000000000e+00,1.236124310549646665e-11,2.513891713363174363e-17,6.541373294947786313e-15,6.052581956269942220e-35
9.243676662445068359e-01,7.549613656010478735e-05,7.554595172405242920e-02,1.090218120225472376e-05,7.321026200616105551e-17
9.999998807907104492e-01,9.892512764508865075e-08,8.991631224308793691e-12,7.304868380108783810e-14,2.554416601009073035e-38
1.000000000000000000e+00,3.964858302785145838e-11,3.687893771200293055e-19,2.059308195430549493e-15,1.149413608012028305e-37
9.999991655349731445e-01,8.857708735376945697e-07,7.391898204645031001e-11,4.615483884841398154e-14,1.866774374440360145e-25
1.000000000000000000e+00,5.727367798774585239e-12,9.653676512691444778e-13,1.934648274914962940e-11,4.368543258503264562e-31
1.000000000000000000e+00,2.180727376455138256e-09,1.803330922089951827e-12,1.090607435632641453e-15,4.415208360499835001e-28
9.996820688247680664e-01,2.615271569084143266e-06,3.152102872263640165e-04,9.320552152303207549e-08,4.554197545185241280e-18
9.999995231628417969e-01,2.191691237385384738e-07,1.904301427657628665e-07,2.285415329206230695e-10,1.442490225359244353e-22
1.000000000000000000e+00,2.481997614176599743e-18,5.038789442177521236e-20,1.290125005506687365e-20,0.000000000000000000e+00
1.000000000000000000e+00,4.542461073953063533e-09,2.374701502105835971e-08,2.167084328826007766e-14,1.594780020223868252e-30
1.000000000000000000e+00,9.138240164574540358e-10,2.791533115775735041e-10,1.047862539989273826e-16,1.057942275469544215e-34
1.000000000000000000e+00,5.254365476048405981e-08,4.583045748463021596e-11,2.237630870524642823e-12,1.325323298626232068e-26
1.000000000000000000e+00,1.088181655894970845e-09,1.541695296568423354e-18,3.950615198476323253e-14,8.349433058957530429e-35
9.996801614761352539e-01,3.194260061718523502e-04,5.183576377021381631e-07,3.083179933582869126e-08,2.787482461971251815e-16
9.999997615814208984e-01,2.621424499693603138e-08,2.356374864120880375e-07,2.740517257571184473e-10,2.252692657965743323e-22
1.000000000000000000e+00,5.729176022484239184e-10,4.172388676095872340e-17,2.786067122855949083e-16,3.310777256217643323e-35
1.000000000000000000e+00,2.070213445115598461e-11,1.997371311640716410e-18,5.115724264017663947e-14,3.128232907866978052e-38
9.999995231628417969e-01,5.006177730138006154e-07,1.651111780631708825e-08,1.736903527024802850e-16,2.773955078957450507e-31
9.999051094055175781e-01,9.489209332969039679e-05,7.085366906904588813e-14,6.211508529752052254e-10,2.734470194372990873e-27
1.000000000000000000e+00,9.295150760202375295e-10,1.999744903002920182e-08,3.408915330564861717e-16,3.704812375751630289e-35
9.999997615814208984e-01,1.604981321179366205e-07,1.276443555298101273e-07,2.372679275275402233e-10,3.549113737799664904e-20
9.999294281005859375e-01,5.229179078014567494e-05,1.820582838263362646e-05,6.887076242634293521e-09,6.775791180356452507e-20
9.997078776359558105e-01,2.901398111134767532e-04,4.694973654295608867e-07,1.476476313655439299e-06,6.836735774767949375e-17
1.000000000000000000e+00,1.332230992190375218e-09,6.613706027280841226e-09,5.730684075064620964e-14,5.396447710811449269e-31
9.999996423721313477e-01,5.714490214359102538e-08,3.737623046617954969e-07,2.139400434586491428e-09,2.324118333134988351e-24
9.999706745147705078e-01,2.927228888438548893e-05,2.627239759078747738e-08,3.917391566687911109e-08,1.963078600642769976e-19
1.000000000000000000e+00,4.929463781611076456e-11,3.618403354721522192e-09,3.033256978923759561e-10,1.302488156801830021e-19
9.999971389770507812e-01,4.635553239040746121e-07,1.307624408752872114e-08,2.413669335510348901e-06,1.494212544468465337e-18
1.000000000000000000e+00,3.765789458043400373e-09,3.415284166585763614e-10,4.603291184378851403e-15,9.507829568940619291e-33
9.996234178543090820e-01,3.038477734662592411e-04,6.777058297302573919e-05,4.922495463688392192e-06,1.248866225291868287e-18
9.999964237213134766e-01,2.263705937366466969e-06,1.307981506215583067e-06,1.885009648372459878e-10,1.995132754107994778e-18
9.999270439147949219e-01,7.175109931267797947e-05,1.223942604156036396e-06,2.135195908969933498e-10,2.929694197542570206e-21
1.000000000000000000e+00,3.074658583290812430e-11,1.585274880117060192e-12,2.814981961494388400e-19,0.000000000000000000e+00
9.999992847442626953e-01,7.213027402031002566e-07,6.781072556770462167e-13,1.451350541484264234e-12,1.387801645654244936e-28
9.999698400497436523e-01,3.020738404302392155e-06,2.720265001698862761e-05,1.762454071574381942e-09,3.125048021344976416e-24
1.000000000000000000e+00,7.289313597169666537e-09,3.111018997969949851e-08,4.937859542368701338e-14,2.646333989049319389e-37
7.737110853195190430e-01,2.262852787971496582e-01,2.949617510239477269e-07,3.431958248256705701e-06,3.063368769128061928e-15
9.999794960021972656e-01,2.052481067948974669e-05,3.461956277206468258e-10,3.976809992423113727e-08,3.814216629668682854e-24
9.999735355377197266e-01,2.640561797306872904e-05,8.915414184684777865e-09,2.365567741691165793e-10,3.771840195665237069e-18
1.000000000000000000e+00,9.787071597600061068e-09,1.899810864181006309e-11,6.958688216851614122e-15,1.757729244069510586e-36
7.304247617721557617e-01,2.695750296115875244e-01,3.099627443603480970e-09,1.483525977619137848e-07,1.396702592718554626e-22
1.000000000000000000e+00,1.394334951318465521e-13,5.087882198884230434e-11,5.710511816019170350e-13,1.145335573884003194e-35
1.000000000000000000e+00,1.262736692986266007e-09,1.044228400715616414e-14,4.630093318533227194e-16,9.066928637583049696e-34
1.000000000000000000e+00,2.235783168947128290e-16,4.011148070520802875e-20,7.545497926856103349e-21,6.949454989970979460e-38
9.999980926513671875e-01,1.876064061434590258e-06,4.940116582474729512e-08,2.617192462750494997e-09,3.691636247175471287e-31
9.999995231628417969e-01,4.410750307215494104e-07,3.856627905918230681e-09,2.517281799945415149e-14,7.454744221023311304e-28
9.999998807907104492e-01,1.046493025569361635e-07,2.866258896894180452e-10,2.865289479137933353e-15,1.345300938283297998e-33
9.999970197677612305e-01,2.938924126283382066e-06,1.456789550102755015e-11,5.861555685271468974e-10,1.161646118997520454e-23
9.992837309837341309e-01,7.163239060901105404e-04,4.103484663176004688e-09,6.769490745739403792e-09,5.358245302275793410e-20
9.999997615814208984e-01,1.916000513801918714e-07,5.262068558664623197e-11,4.520736473427426627e-14,1.652590411100133017e-26
9.994237422943115234e-01,5.763164372183382511e-04,1.964609808169370808e-09,8.078490654206404997e-10,2.403038054829584795e-18
9.999998807907104492e-01,1.750915572529265773e-07,1.449569131395378463e-09,6.142760966554305924e-09,7.956975559301580601e-26
1.000000000000000000e+00,5.532947433550816640e-10,2.975031054841537070e-10,7.143912197915547324e-12,5.036954737058795001e-31
9.999980926513671875e-01,1.862881504166580271e-06,5.739541827920469075e-11,3.394091407926680404e-08,5.266364214565272631e-31
1.000000000000000000e+00,8.642039462214803121e-16,1.552787998686635043e-15,9.898035131873859694e-21,0.000000000000000000e+00
1.000000000000000000e+00,2.886024474957338271e-10,5.616787556216266484e-18,2.081646863516577030e-20,0.000000000000000000e+00
1.000000000000000000e+00,1.014982409230924532e-08,2.329129944467211999e-12,4.851128179717001387e-13,2.872279040726570455e-25
1.000000000000000000e+00,6.348169602835018743e-13,2.215423276221993088e-17,6.912692640526074683e-11,0.000000000000000000e+00
9.969602227210998535e-01,3.025818383321166039e-03,1.198995596496388316e-05,1.887235839603818022e-06,1.493996394729779718e-15
9.999859333038330078e-01,1.402763609803514555e-05,6.614949921157631252e-09,1.233711088843847392e-08,6.686667923576027796e-18
1.000000000000000000e+00,1.486413438148604001e-15,1.704309699214457373e-17,9.677903953180172654e-20,0.000000000000000000e+00
9.999959468841552734e-01,3.840478257188806310e-06,1.338177835208398392e-08,1.837524905567988753e-07,1.941896922982407004e-23
1.000000000000000000e+00,2.208484480362149505e-12,1.705811342218970825e-18,2.240605263988375978e-14,0.000000000000000000e+00
1.000000000000000000e+00,6.779097829685254407e-17,6.896150483126892933e-19,3.925115522400394268e-18,2.030492545064528102e-38
9.999997615814208984e-01,1.775253366531615029e-07,1.769197695011825999e-07,1.276673970533603875e-12,2.907206899233330666e-28
1.000000000000000000e+00,3.670657527932164044e-12,2.883708779676239550e-17,2.392586779739747094e-12,2.813046803661674314e-36
1.000000000000000000e+00,6.687642247708153187e-14,8.276451042454782518e-16,8.976500479954412255e-16,5.466026489914411149e-36
1.000000000000000000e+00,1.008646677291835658e-08,6.150718226839019254e-14,1.067480847639912245e-12,4.719262528243528254e-27
1.000000000000000000e+00,3.597567399538093014e-08,4.091307587855697037e-12,2.330458423741905592e-16,1.384770709457491583e-38
9.999969005584716797e-01,2.925470653281081468e-06,8.365654480257944670e-08,2.175163515971689776e-08,8.146186652805434475e-23
9.999988079071044922e-01,1.155167865363182500e-06,3.333838760610774443e-09,1.515839259669249373e-10,5.503145443818683483e-25
1.000000000000000000e+00,7.837582579467428090e-13,1.281895195599350347e-17,1.523145975665385343e-12,0.000000000000000000e+00
1.000000000000000000e+00,9.607355709595477578e-12,1.161628432333472460e-10,2.149186037470052213e-11,1.858289291728714397e-36
1.000000000000000000e+00,1.553789562291907345e-11,7.999107044535306958e-16,9.635748552143039158e-15,0.000000000000000000e+00
9.968225955963134766e-01,2.180863812100142241e-04,2.996291004819795489e-05,2.929354785010218620e-03,1.237290566328391999e-15
9.966365098953247070e-01,3.360473783686757088e-03,3.027601906069321558e-06,5.666060687303797749e-08,7.301616738414793778e-18
9.998617172241210938e-01,1.366862561553716660e-04,9.132739364758890588e-07,5.531563260774419177e-07,8.295403934045189522e-17
9.999233484268188477e-01,7.650857151020318270e-05,1.010455830119383336e-09,7.891752318300859770e-08,7.486893796043855231e-20
1.000000000000000000e+00,2.237160245466621178e-13,1.786256078506430592e-19,4.008353053080380336e-18,0.000000000000000000e+00
9.987548589706420898e-01,1.245098770596086979e-03,3.958619210209235462e-09,4.080909832282486605e-08,1.302378809825640333e-22
1.000000000000000000e+00,8.175478349858877891e-11,1.096151096865831398e-14,4.516649878270103530e-15,1.274881847171334969e-33
1.000000000000000000e+00,8.660331159886583419e-14,2.153294348383738566e-10,1.684731062034266254e-16,1.164093466212532306e-31
9.999986886978149414e-01,1.353643142465443816e-06,5.555247284405595565e-08,2.674705790184361831e-08,3.576417535178665451e-18
9.999933242797851562e-01,2.845953531505074352e-06,6.851036959965028927e-10,3.778245172725291923e-06,1.013728356826902763e-22
1.000000000000000000e+00,4.619008647788191979e-11,3.806891954449831417e-11,7.841793376037744305e-22,0.000000000000000000e+00
1.000000000000000000e+00,7.041968674847964849e-10,2.708944002449698019e-08,8.852954901245860177e-16,2.319005505281865335e-27
9.999992847442626953e-01,5.204431019478761300e-08,7.379827593467780389e-07,1.426142190452672764e-13,9.434503907356170399e-28
9.999982118606567383e-01,1.628694235478178598e-06,7.205013474731458700e-08,1.953225359230259528e-10,3.592065737341334423e-21
9.917643666267395020e-01,1.512695213534698269e-08,8.235646411776542664e-03,3.385277287984954364e-14,3.726183179790205725e-30
9.999899864196777344e-01,3.360403979968396015e-06,6.644323548243846744e-06,5.561252791608239932e-08,7.870801372273757227e-18
9.999995231628417969e-01,4.410258327425253810e-07,1.875754969914416453e-14,1.664229626503754833e-12,1.435652737717981465e-26
9.999977350234985352e-01,2.314756329724332318e-06,3.179206897740982640e-10,1.296797891292555960e-09,7.233701389446099470e-28
9.995461106300354004e-01,1.465777750127017498e-04,1.210968321174732409e-06,3.060909803025424480e-04,8.270828067173994049e-17
1.000000000000000000e+00,3.195985698312142631e-08,2.018399468693482177e-15,1.890337018861654172e-11,1.435117155551767299e-33
1.000000000000000000e+00,5.248580459138452170e-10,4.371725691957456528e-13,7.966776812302812223e-21,1.410177231524625544e-38
1.000000000000000000e+00,1.322508352830098488e-10,3.520409084203911663e-19,3.963727072623450770e-17,0.000000000000000000e+00
9.999979734420776367e-01,1.085594281136081918e-09,1.982416051760083064e-06,2.362334217131945024e-10,5.331076684303459927e-19
1.000000000000000000e+00,1.764838275519764466e-13,1.628398300424700332e-18,7.905380180767834775e-14,0.000000000000000000e+00
9.999997615814208984e-01,2.836424926044855965e-07,1.421291816877667813e-11,4.872945308983384072e-14,1.940346831587094261e-33
1.000000000000000000e+00,1.396218557436768037e-10,8.504501991524193727e-09,1.146221395487872271e-15,6.893787272101094249e-33
9.983822107315063477e-01,1.614588778465986252e-03,2.921372015407541767e-07,2.935340035037370399e-06,1.953311743108232529e-17
9.999995231628417969e-01,8.325466893666089163e-08,3.888039827870670706e-07,7.352203047761296517e-12,1.838385162268235786e-20
9.989655017852783203e-01,2.517763059586286545e-04,7.809797534719109535e-04,1.757889663167588878e-06,2.136369161859157204e-16
9.999639987945556641e-01,5.349846105673350394e-06,1.875655834737699479e-05,1.189519298350205645e-05,1.278045138943106660e-25
1.000000000000000000e+00,2.637187357379389141e-08,1.633720181359876733e-08,5.324164220610327902e-09,5.762739461018299066e-27
9.999879598617553711e-01,1.203250758408103138e-05,1.134629369625717032e-11,1.172170693841678712e-10,1.016123830784358613e-21
9.999238252639770508e-01,1.051045182975940406e-05,7.389901384158292785e-06,5.832881652167998254e-05,2.321316436019678718e-19
1.000000000000000000e+00,5.172395844965649303e-10,6.379387614087380374e-17,4.828810741969993478e-15,2.153955093624627924e-33
1.000000000000000000e+00,5.138789567482593412e-12,1.621747478786559596e-17,3.442278370170432505e-15,0.000000000000000000e+00
9.999986886978149414e-01,1.341474444416235201e-06,6.155667087170968443e-09,9.537446787194481246e-13,7.117656522132787625e-26
1.000000000000000000e+00,1.325204442709226882e-11,4.915427787022252915e-11,6.513776670358665589e-17,4.972709033710083535e-32
9.999991655349731445e-01,7.878923042881069705e-07,1.032640017939456811e-08,4.165312470210281309e-15,7.025228952152626220e-30
1.000000000000000000e+00,7.566365312072775851e-10,1.904702320886832168e-14,1.021020941405215154e-12,8.394271165984818651e-35
9.985958933830261230e-01,1.319784787483513355e-03,8.080214320216327906e-05,3.435940016061067581e-06,6.391669420298395909e-13
9.999822378158569336e-01,1.775522105162963271e-05,2.606605469662737207e-12,2.937615428688644670e-11,1.880201568448157718e-31
1.000000000000000000e+00,3.883163982299971150e-17,3.579353005302160079e-20,1.554714282691345273e-30,0.000000000000000000e+00
9.992412328720092773e-01,6.964354543015360832e-04,1.387414613418513909e-06,6.089498128858394921e-05,7.588440590113596559e-16
9.379472136497497559e-01,1.114101542043499649e-05,9.954691293501127802e-09,6.204157695174217224e-02,3.452306494559370031e-23
9.999997615814208984e-01,1.649213459131715354e-07,1.285861088717865641e-07,1.930630932900356811e-10,7.693957308302471303e-23
1.000000000000000000e+00,2.069820759231788543e-09,1.103615235900331018e-14,1.583658898463013998e-11,2.136584926743858248e-30
9.999846220016479492e-01,6.891208954584726598e-07,1.467126548959640786e-05,5.148317536174396025e-11,2.112626617711407616e-23
1.000000000000000000e+00,4.949028600126359478e-12,2.332592341502959243e-09,4.011274655003917630e-18,2.947578487392031349e-34
9.999997615814208984e-01,2.174509177166328300e-07,2.346873628766843467e-08,1.504507807226218574e-08,1.422077660575745451e-23
9.999754428863525391e-01,4.994083724341180641e-07,3.642869783604396616e-09,2.412055619060993195e-05,4.909036921435302000e-23
9.999998807907104492e-01,1.097841249020348187e-07,3.244724974815760277e-11,1.096448994965248946e-12,4.207582415879979849e-25
9.999977350234985352e-01,2.254750370411784388e-06,8.026216843926015088e-12,3.276958131931406726e-12,1.787538515417443225e-21
9.998083710670471191e-01,1.624126307433471084e-04,5.580586215359062408e-09,2.919700818893034011e-05,2.983662118346364985e-20
9.999998807907104492e-01,1.136415761493481114e-07,3.455795545559414705e-12,2.380829214332358390e-11,1.431175736376698452e-25
1.000000000000000000e+00,3.856272075888076203e-15,1.570504082337720320e-08,2.580180433729446082e-14,4.228741744747328679e-33
9.999989271163940430e-01,9.497754405174418935e-08,1.004978798846423160e-06,2.425018241769549832e-10,2.608508407131004148e-20
9.999998807907104492e-01,1.086948415718325123e-07,3.645038264277200568e-12,1.620481940094956747e-14,9.391917142572772219e-29
9.999982118606567383e-01,2.445283442398249463e-08,1.768453557815519162e-06,1.691207497124796316e-14,1.984900956319400821e-28
9.995604157447814941e-01,1.962189770665645483e-07,4.391351249068975449e-04,2.676315489225089550e-07,1.426996245952469573e-28
1.000000000000000000e+00,4.896724137282149059e-10,1.112790415369602215e-11,5.914253055393572933e-14,1.021535198104355911e-27
1.000000000000000000e+00,2.111230448211956148e-18,1.530853221964889599e-11,3.343808143074159921e-17,0.000000000000000000e+00
1.000000000000000000e+00,1.758082720203224536e-12,2.862990400309683992e-11,4.704557056423031014e-13,1.176315786274642122e-31
9.999994039535522461e-01,6.523553679471660871e-07,4.118785390874735164e-13,4.027815928009381707e-11,5.312333302873496332e-24
1.000000000000000000e+00,9.457762351061660411e-11,1.232456202709735047e-19,5.744554684268207440e-16,0.000000000000000000e+00
9.990963935852050781e-01,9.035853436216711998e-04,9.142951153118250573e-13,9.569978143275648108e-11,2.948244620266123721e-25
1.000000000000000000e+00,1.009912362071041514e-10,5.076407366298371637e-14,3.373815608719623596e-17,9.925889344671086243e-31
9.999145269393920898e-01,6.260207641162196524e-08,8.539118425687775016e-05,9.032675718501081974e-10,3.922368197092164240e-19
9.970519542694091797e-01,2.928928239271044731e-03,1.901970608741976321e-05,9.760606189956888556e-08,4.839468669554092273e-12
1.000000000000000000e+00,1.422154342396340573e-15,1.925331977723800103e-14,2.392049922473956055e-22,2.913546404910321009e-36
1.000000000000000000e+00,6.024937881932146411e-09,9.316800109182565848e-11,2.555286537919698731e-10,2.083647356798644702e-29
9.977360963821411133e-01,2.256857231259346008e-03,6.541870902765367646e-07,6.311859579000156373e-06,4.735157697123874507e-15
9.999998807907104492e-01,8.364737880128814140e-08,4.730951275178085780e-08,1.296057445393516971e-11,2.637863599321423403e-25
9.998170733451843262e-01,2.512813125576940365e-06,3.305868290226499084e-07,1.801076869014650583e-04,3.839261827449746461e-22
9.999982118606567383e-01,1.840521917984005995e-06,1.282601802543581471e-10,7.189355447773104757e-14,4.189751978336415619e-31
1.000000000000000000e+00,2.638253764758458075e-12,5.924574596548163891e-17,4.371312577048421660e-15,1.770251157463615435e-37
1.000000000000000000e+00,3.329516928829434619e-08,4.751634108401958656e-08,5.721727887493532894e-14,1.469098398613611315e-27
9.999629259109497070e-01,3.710091550601646304e-05,5.842163558478219443e-12,5.454975880725410065e-12,5.791063342338424389e-27
1.000000000000000000e+00,2.947679256237734080e-08,1.537647396562813462e-12,1.824115684889715538e-11,1.189609542036659097e-24
9.999694824218750000e-01,3.047449172299820930e-05,2.566132017989275482e-08,4.550429586087922917e-13,5.237232334915736717e-28
9.995172023773193359e-01,2.156080299755558372e-04,2.671190886758267879e-04,6.482078762637399905e-11,2.711720342641028758e-22
9.999963045120239258e-01,3.636942437879042700e-06,3.048601301958164811e-12,6.599467194945418669e-09,2.836354825474240840e-28
9.999970197677612305e-01,1.041394668277462188e-07,2.895853185691521503e-06,5.170259775866270502e-10,9.633691647999305425e-24
9.999928474426269531e-01,1.969557843040092848e-06,5.143406724528176710e-06,6.734065128438659897e-12,5.292072199383799865e-24
9.998619556427001953e-01,2.179117686296194734e-08,1.380589819746091962e-04,1.355153055743185675e-11,1.629019660171509261e-24
9.887422323226928711e-01,1.125766243785619736e-02,4.851947466022465960e-08,8.231525328028510557e-08,1.171139165057557350e-18
1.000000000000000000e+00,2.242791320499967767e-13,1.117735412773914134e-16,2.453967476272189696e-13,2.032553995235396340e-38
9.999951124191284180e-01,4.894907760899513960e-06,1.320591136444448921e-10,3.181435323518222447e-11,4.707828796772182375e-24
1.000000000000000000e+00,1.576286030955525996e-13,9.361398808915843972e-12,4.801979265030953440e-20,7.080204656587147988e-36
9.999998807907104492e-01,5.998315799615738797e-08,9.823707602593656496e-13,1.079008618565246991e-10,1.253154697675758015e-26
9.982954859733581543e-01,1.704487134702503681e-03,2.748783201056426151e-09,1.161241058866835374e-08,1.004830008340364647e-20
9.999902248382568359e-01,4.969819400457708980e-08,9.792584023671224713e-06,6.093451437871877374e-11,3.285476612601420012e-23
9.489607214927673340e-01,4.403027414809912443e-04,2.571831864770501852e-04,5.034184083342552185e-02,1.909438969785459683e-12
1.000000000000000000e+00,1.110644020328732662e-12,3.520170990604345931e-17,3.220387501725327853e-16,9.861580769708555684e-38
1.000000000000000000e+00,5.207241748905744316e-09,1.002972729283353737e-14,9.538356215976762087e-12,3.583714933672522647e-33
1.000000000000000000e+00,9.987825844159914368e-11,7.096053541551963883e-20,3.866300945983567119e-16,0.000000000000000000e+00
9.999799728393554688e-01,1.997344588744454086e-05,9.153180990928433403e-10,6.946684338871023101e-10,3.172390325280457608e-25
9.999997615814208984e-01,2.525466982206125977e-07,1.206964302807866929e-11,1.796432030909400623e-10,5.327030018196035349e-23
9.999995231628417969e-01,8.732257583687896840e-08,3.278135238815593766e-07,2.704430634992149862e-08,6.225873108078103467e-19
1.000000000000000000e+00,3.856408969937774600e-09,8.918668581436861587e-11,7.691218495420315548e-11,3.008753433332843454e-27
9.999996423721313477e-01,2.399958454191164492e-08,3.578853124963643495e-07,1.400202213018824499e-14,6.181002044836133161e-28
9.999986886978149414e-01,1.360989017484826036e-06,1.138097047159725150e-10,3.076318930497756732e-12,6.929190897253986949e-24
9.999988079071044922e-01,1.135139200414414518e-06,3.789267921661121363e-08,1.292612822334504585e-10,5.934036033151152619e-20
9.978176355361938477e-01,2.178807277232408524e-03,3.533961944413022138e-06,2.472381639555670796e-17,8.758656047640496180e-35
9.999979734420776367e-01,1.987019231819431297e-06,6.999985591171764554e-10,3.708027537362851289e-13,2.582919055938650942e-28
9.999963045120239258e-01,3.179275381626212038e-06,4.390997787595551927e-07,1.461934573399048531e-08,8.571066379051002421e-22
9.999996423721313477e-01,3.013256844042189186e-07,2.248270666860285871e-11,7.372160573790222798e-15,2.748543703554742490e-35
1.000000000000000000e+00,7.449098282652499847e-11,1.226585763940992151e-16,2.056553813692667959e-14,6.117110167645354745e-35
1.000000000000000000e+00,5.945856029754281735e-10,6.034937377982123666e-15,5.655782374554274572e-13,1.260318728474234268e-31
1.000000000000000000e+00,1.933644178109261702e-08,1.328054148857366057e-14,2.576823953867601880e-12,1.586263069004137953e-28
1.000000000000000000e+00,1.044249486881199118e-08,2.099205818938479351e-13,3.953561089620194480e-11,2.636159704062534738e-28
9.999997615814208984e-01,2.334352302568731830e-07,5.580217277839638612e-13,1.590021309061384613e-10,3.598935798380576664e-25
1.000000000000000000e+00,4.399331743343282142e-08,7.410414106347532059e-14,1.961816058454295131e-14,1.020335984175957406e-34
1.000000000000000000e+00,5.508129508058345891e-10,5.109122828039942832e-14,7.898465104371613153e-17,1.684895516517346984e-34
1.000000000000000000e+00,2.070212491017686673e-12,7.479515054184537881e-13,4.658607539125346361e-20,1.187145261932518909e-36
9.999924898147583008e-01,7.530172752012731507e-06,2.834093237868984261e-10,1.093825144392671089e-13,3.754269245743251501e-33
9.999997615814208984e-01,2.848341296157741453e-07,9.374213211232884646e-11,1.372857028059115692e-08,5.899929837648846255e-22
9.999990463256835938e-01,9.576826869306387380e-07,2.098119233906459158e-09,1.006483633415877765e-12,6.125736537163296925e-30
9.999899864196777344e-01,9.961192517948802561e-06,2.917000191740570791e-12,1.117584844112506914e-10,9.524299517411402496e-23
9.998985528945922852e-01,9.737224172567948699e-05,4.086097305844305083e-06,1.002896965474064928e-08,5.253672741495927517e-19
1.000000000000000000e+00,9.398195999210656737e-09,4.430708244740344526e-08,1.690076301564397143e-13,2.797400481932127798e-22
9.999812841415405273e-01,1.329365841229446232e-05,2.227705309110206144e-08,5.421236892289016396e-06,3.100151563966001054e-30
9.999725818634033203e-01,7.066970653113457956e-08,2.667232729436364025e-05,5.547344130718556698e-07,1.349418167507689500e-24
9.998949766159057617e-01,2.739587168232304748e-10,1.049545026035048068e-04,4.624532961433613920e-12,6.111950819575262397e-25
1.000000000000000000e+00,2.046729230542609912e-09,9.682470889513586365e-15,2.255567911266243009e-12,6.421850711141084147e-31
1.000000000000000000e+00,1.523833109120988766e-14,5.242397024840007858e-14,1.957800402306304581e-15,0.000000000000000000e+00
9.999965429306030273e-01,3.515958042044076137e-06,4.513637405593193611e-15,4.202735381930722269e-12,1.311359751131853732e-31
9.794609546661376953e-01,2.053873427212238312e-02,3.457812454144004732e-07,6.662625312570114033e-12,9.975573088383780929e-15
9.999916553497314453e-01,3.795226575675769709e-06,4.436874860402895138e-06,8.853795208096926217e-08,8.215977224447235252e-18
9.999768733978271484e-01,7.741533636362873949e-08,2.299168045283295214e-05,7.107472596579178514e-12,3.103166124239412858e-23
1.000000000000000000e+00,5.064150343514484121e-08,2.214125489397901492e-14,4.775397299816575014e-10,3.596157179323716507e-29
1.000000000000000000e+00,2.995569348129833998e-10,3.103134138537910758e-10,9.883675082569483067e-18,2.598627780555887591e-36
1.000000000000000000e+00,5.147115622605724639e-09,1.745458703787672317e-13,7.576209116717889241e-15,0.000000000000000000e+00
9.999614953994750977e-01,3.731942342710681260e-05,1.190122667082960106e-08,1.199073835778108332e-06,7.339343515575148248e-19
1.000000000000000000e+00,5.389675372668989439e-10,1.566659454076135827e-12,1.550954460347031549e-13,6.937738271194370315e-33
1.814833730459213257e-01,8.185165524482727051e-01,8.778655753716169130e-12,6.077428560402609037e-10,4.616943047197924926e-25
9.992548823356628418e-01,5.421459791250526905e-04,5.792673007931625762e-08,2.029419119935482740e-04,3.330572684586640348e-19
9.999207258224487305e-01,7.922562508611008525e-05,1.208146027664724897e-09,5.902902167065349204e-09,2.274996580864458150e-26
1.000000000000000000e+00,4.666094621796901265e-09,6.265276075723136273e-10,5.061976360096881716e-16,8.686257318430927837e-32
9.731076955795288086e-01,2.688972838222980499e-02,2.512403625587467104e-06,1.161682468969749138e-11,3.442645516428363284e-29
1.000000000000000000e+00,6.021666238559264528e-12,1.488668805852529088e-19,7.157884180816354583e-18,3.645630135954237285e-38
9.999997615814208984e-01,8.041538990255503450e-09,1.602743493478442360e-09,2.300055967907610466e-07,2.033331594407177496e-28
1.000000000000000000e+00,4.646134865726736507e-11,7.355252949130079709e-15,7.659259850163226135e-15,3.507833272098652965e-35
9.999998807907104492e-01,1.862073689684606848e-11,6.481990766360468115e-08,7.960196435433588034e-18,1.369926553109666415e-32
9.999992847442626953e-01,5.479192850543768145e-07,9.110832621672670939e-08,1.587651565770897832e-09,3.783762824816581221e-21
9.999488592147827148e-01,3.417080662870830565e-08,5.112662256578914821e-05,2.675669148050063839e-12,2.430775954009113756e-19
9.999974966049194336e-01,2.467376589265768416e-06,4.596711344895254570e-10,4.977689371798987850e-09,8.226083717171408144e-20
9.999897480010986328e-01,2.632102678035153076e-06,1.089239503926364705e-06,6.530179234687238932e-06,2.631526383846943557e-24
1.000000000000000000e+00,2.815737421002495466e-09,2.565778256524708922e-09,3.886388554632492476e-20,0.000000000000000000e+00
9.999909400939941406e-01,9.008366760099306703e-06,3.161045869504164330e-10,3.276040994037998644e-09,8.544429182063188422e-26
1.000000000000000000e+00,1.078644534802108979e-10,5.756622680305094678e-15,1.409885678960292872e-17,2.483617157853961292e-33
1.000000000000000000e+00,1.161011642381026832e-08,3.084363597860573236e-10,6.296569710941002374e-13,1.526732062847987015e-31
1.000000000000000000e+00,1.291363238564713356e-09,5.211663545168221390e-09,5.098375674005180269e-14,8.804613997532544233e-26
1.000000000000000000e+00,2.022471301543760092e-09,1.475404798334523093e-09,2.866793608058415543e-11,1.483347175603006508e-25
1.000000000000000000e+00,1.339689860782589115e-12,3.189749619991744112e-08,3.780564689305684061e-20,0.000000000000000000e+00
1.000000000000000000e+00,5.834363037138246000e-08,3.165315367670631930e-14,3.351718181427917886e-14,3.097411018317284934e-28
9.999998807907104492e-01,5.518208112675893062e-08,1.136907954446542135e-07,2.889062305835572546e-15,2.295293064602049734e-29
1.000000000000000000e+00,4.037781993775303252e-21,1.709334356146622455e-19,1.843186126823377620e-23,0.000000000000000000e+00
9.999998807907104492e-01,1.609455750894994708e-07,2.499646912796759518e-14,2.027329313539910638e-13,2.909413593652423104e-29
9.974709749221801758e-01,2.529084915295243263e-03,4.834130251651913568e-08,2.622147121655871160e-08,1.206688250314872460e-20
1.000000000000000000e+00,8.241186899571317781e-11,3.385992183792436994e-14,8.055429101538891246e-10,2.298866106634763966e-31
1.000000000000000000e+00,1.535221776094441992e-11,7.686821963453702167e-14,7.800314213990411361e-13,2.918834941367289758e-33
9.999811649322509766e-01,1.551712557557038963e-05,3.317758228149614297e-06,1.857305420571719878e-09,1.796577229769439824e-17
9.999909400939941406e-01,9.091895663004834205e-06,3.530920977823370777e-08,1.051154063964887531e-12,9.440838483536254456e-27
9.999963045120239258e-01,3.594615463953232393e-06,8.047683053291621036e-08,1.451169826666154350e-11,1.310299777952182617e-23
9.999843835830688477e-01,1.536498712084721774e-05,2.252286179782458930e-07,2.317028702236711979e-08,9.463697455623896674e-22
9.999996423721313477e-01,1.135685212538817268e-09,3.648646327292226488e-07,4.069497183678549845e-09,9.425574521756079134e-23
9.999997615814208984e-01,2.334886630706023425e-07,1.335916273437209867e-11,2.385621145073457683e-10,3.568097943696516329e-24
1.000000000000000000e+00,4.629065464278880881e-10,1.912213054566791470e-09,1.529283123746782991e-11,7.749117490049248234e-26
1.000000000000000000e+00,6.030271768042716474e-13,8.019367437358919382e-15,1.045113946509767178e-20,0.000000000000000000e+00
9.924966096878051758e-01,7.503319066017866135e-03,1.074033733061696694e-07,3.273002008308267818e-11,9.282124268218345287e-23
9.999947547912597656e-01,5.245846750767668709e-06,3.777277020897487625e-14,5.939208680416641073e-09,7.222494430841376824e-33
9.999889135360717773e-01,6.049975187494283091e-09,1.104487182601587847e-05,9.703332294564923077e-14,4.778585028409074969e-30
1.000000000000000000e+00,2.983694021019278608e-12,4.962481011376194615e-15,1.104401726320647370e-12,4.570216350591355581e-25
9.999850988388061523e-01,1.482224342908011749e-05,8.292921194197333534e-08,8.922342899231328062e-12,9.280278878960785808e-20
1.000000000000000000e+00,1.623240705228340321e-15,4.453110125248295817e-15,3.236889754945760755e-17,6.683376575102987988e-31
1.000000000000000000e+00,1.882531996955094655e-08,8.765073898891334592e-14,1.065590046755993114e-10,2.235712746105233496e-33
9.999918937683105469e-01,8.064373105298727751e-06,3.537985131100464253e-14,1.662680545544761856e-13,6.103254314328114051e-30
9.999616146087646484e-01,3.521786493365652859e-05,5.404453986557200551e-07,2.665600277396151796e-06,9.490315546124484904e-20
1.000000000000000000e+00,4.286508925588350394e-08,1.989668291235702213e-10,2.225800654898080211e-09,1.745264002982509093e-26
9.995425939559936523e-01,4.572701000142842531e-04,1.354087544314097613e-07,7.870684659572191322e-11,2.030202885634770346e-19
9.999980926513671875e-01,8.256350270130496938e-08,1.750773094499891158e-06,4.381519858043247950e-08,1.660899756976042012e-17
9.999995231628417969e-01,4.449891264357574983e-07,5.055750956772797622e-12,1.281765085779998370e-13,1.449727496795676408e-30
9.999221563339233398e-01,7.783747423673048615e-05,1.885037015370016888e-08,2.331184489889892575e-08,2.669783371440687009e-29
1.000000000000000000e+00,1.964752823326379461e-13,3.550998998737946895e-19,8.171926541488891416e-14,0.000000000000000000e+00
9.999929666519165039e-01,1.086837869479495566e-06,6.008981472405139357e-06,1.571017449464306992e-08,2.803385777879318593e-21
1.000000000000000000e+00,5.130035063416471530e-08,1.315146631996675481e-16,7.576317298707121377e-17,0.000000000000000000e+00
1.000000000000000000e+00,6.304594297795382274e-14,2.591147608976829275e-11,3.350733929143208389e-14,1.346106450378973778e-34
1.000000000000000000e+00,4.358382594293166389e-19,3.542545555685049925e-25,9.326188776206542652e-22,0.000000000000000000e+00
1.000000000000000000e+00,1.274872429846141131e-10,8.725730360481520620e-09,1.111488875660158690e-17,1.171732424516545595e-34
1.000000000000000000e+00,5.347170595844039087e-14,5.833863614765214325e-15,2.421509965709210590e-16,1.533580030422185489e-37
1.000000000000000000e+00,3.547009574944581800e-09,7.077476382733038918e-10,1.107096463889440857e-17,3.657856301114761376e-33
1.000000000000000000e+00,7.010305225207957847e-09,9.860215977042230406e-10,1.715318165285140140e-11,2.125044619100140716e-28
1.000000000000000000e+00,3.231981089008018060e-12,1.239255606665405621e-17,2.882082542591960297e-16,2.075594765463255951e-37
1.000000000000000000e+00,1.642126212786365613e-09,1.394759073420649958e-15,1.473558993196014827e-14,2.295226188377442752e-34
1.000000000000000000e+00,1.506173497034524189e-08,3.225426037367640220e-10,1.529961201911960497e-17,7.323952565081172553e-37
9.999805688858032227e-01,1.937792694661766291e-05,7.643853540580114458e-13,2.923722597358846542e-09,5.380359263180332440e-28
1.000000000000000000e+00,2.986772884138594319e-13,2.565760456244345269e-19,2.587121876808595935e-23,0.000000000000000000e+00
1.000000000000000000e+00,3.018088179373989988e-08,3.242271902348381474e-13,1.592571018636801394e-14,1.774465569096890567e-27
9.999998807907104492e-01,4.490309901683531280e-09,6.420589926392494817e-08,1.612097635288536890e-13,1.743381614462304564e-25
1.000000000000000000e+00,5.234287225874822980e-09,8.580885568071350278e-13,4.027435665781425866e-14,2.651272965341791320e-31
9.999998807907104492e-01,1.614839959529490443e-07,3.902856260395992649e-09,2.013211862841868260e-12,1.944922804088217552e-22
1.000000000000000000e+00,5.606947084402236214e-08,4.551989956302036899e-14,2.934345041255559394e-12,1.086860666177066043e-31
9.998639822006225586e-01,1.353168045170605183e-04,7.130136054911417887e-07,2.474318350209614437e-08,1.359075861680039381e-17
1.000000000000000000e+00,1.114138512350870691e-12,4.548528545575170360e-17,3.127626806089141287e-14,0.000000000000000000e+00
7.973635792732238770e-01,2.330381903448142111e-05,1.297563165426254272e-01,7.285682111978530884e-02,1.145653481072561944e-14
9.999995231628417969e-01,3.614011173658226994e-11,4.983518238077522255e-07,3.269295912548125793e-13,3.833560534444640166e-25
9.898210763931274414e-01,1.006519421935081482e-02,6.622794899158179760e-05,4.759314833790995181e-05,1.878456501458458661e-09
1.000000000000000000e+00,2.103591967284046405e-08,2.341490912272092828e-08,1.867841683189305768e-13,3.263261890552202780e-31
9.998773336410522461e-01,1.226855820277705789e-04,5.227583990685680249e-11,2.224190748028806452e-13,2.635981179986339763e-25
9.999815225601196289e-01,1.851150773291010410e-05,6.082732983969663110e-09,1.378744141078414032e-08,2.211529664700402389e-19
9.987525939941406250e-01,1.245313906110823154e-03,2.095457375617115758e-06,5.788629020564428629e-10,1.122033089988612840e-22
1.000000000000000000e+00,1.069797916919412728e-09,3.507661869295297663e-11,8.573029168078977191e-14,5.119572359165943080e-32
1.000000000000000000e+00,6.565038512817977789e-10,3.135527948394667419e-11,1.073480106889013186e-11,8.135596928662521011e-29
1.000000000000000000e+00,1.939861249411478639e-08,1.348631761821650343e-09,4.374582124224823260e-15,3.040243046858688058e-32
9.997164607048034668e-01,2.640883849380770698e-06,2.809536526910960674e-04,7.206617524957437126e-10,3.474104930181161206e-23
9.999511241912841797e-01,4.885293674306012690e-05,1.129161320001514923e-09,3.493020095390875213e-09,2.986375456548059313e-21
1.000000000000000000e+00,3.055994923784055572e-08,4.995365666254913961e-12,4.308398360297616136e-10,3.073405538007522336e-25
1.000000000000000000e+00,3.366716280761572477e-11,2.653170435087948142e-12,1.718397577662970498e-17,2.944839337598775792e-32
3.144832849502563477e-01,3.322721750009804964e-05,6.854834556579589844e-01,1.032315299909214446e-08,5.302608785412053424e-15
9.987247586250305176e-01,1.273883506655693054e-03,1.119776811719930265e-06,2.327610388874745695e-07,9.552403690590972483e-21
1.000000000000000000e+00,7.944277236049401836e-09,5.631312541384998760e-14,1.641794256102002691e-09,2.577907416824255608e-33
1.000000000000000000e+00,3.717776433931341273e-11,4.497595064793340192e-17,4.731548913252097560e-15,3.148784090166939824e-34
9.999898672103881836e-01,9.958645932783838362e-06,1.432930787359509850e-07,8.391127792606312141e-09,1.979166296784564004e-30
9.989390969276428223e-01,1.058099209330976009e-03,1.231423230052541840e-08,2.864078851416707039e-06,4.896962944586125765e-21
9.999945163726806641e-01,4.425958650244865566e-06,1.031723741107271053e-06,7.754460407127794497e-10,1.980165937180503278e-29
9.663910865783691406e-01,3.354867175221443176e-02,4.443037141754757613e-06,5.570593566517345607e-05,9.367579562168662976e-17
1.000000000000000000e+00,5.595659491319793233e-10,6.231892779595682441e-10,3.059851041298114818e-15,1.882794352664346591e-34
9.999998807907104492e-01,6.373863659092648959e-10,8.061139311621445813e-08,7.193970245900072058e-12,9.144786740062988015e-23
9.998133778572082520e-01,1.144660586760437582e-06,1.854380971053615212e-04,1.183172115837294314e-09,2.058157034383345105e-20
1.000000000000000000e+00,4.086940208480882575e-08,6.976400360181322924e-12,2.010468397664610940e-12,7.111648113744365212e-24
9.999998807907104492e-01,4.497409022974352411e-08,4.529849759182802416e-11,1.247237548795965267e-07,6.749086655628656660e-25
8.091644644737243652e-01,8.921603875933215022e-05,1.907463073730468750e-01,1.377082670117601992e-09,1.849990060360305810e-18
1.000000000000000000e+00,2.567824841648302936e-09,2.459410106125936579e-11,1.425792535252046189e-13,1.227701195863210693e-29
1.000000000000000000e+00,4.919665030911346548e-08,8.883570377728774829e-16,7.655620061497447892e-12,3.910452312855712469e-34
9.903736114501953125e-01,9.625985287129878998e-03,1.460777241391042480e-07,3.012077627317921724e-07,1.944734254972272695e-20
1.000000000000000000e+00,1.471741895020528546e-10,1.506711036728988447e-19,1.729676006644118719e-14,0.000000000000000000e+00
9.999237060546875000e-01,7.597925286972895265e-05,2.857557035440549953e-07,7.357271414321076008e-08,1.757354743332997262e-20
9.998829364776611328e-01,1.170777686638757586e-04,2.583293579050405242e-08,4.791131935633075045e-10,2.475859615760790901e-21
1.000000000000000000e+00,1.716960795761224290e-08,5.356692867053425289e-11,2.837788344278725750e-17,3.387953488880639758e-38
9.999681711196899414e-01,5.813438747281907126e-06,4.724140580947278067e-07,2.550016870372928679e-05,7.190578494527513002e-18
1.000000000000000000e+00,8.542853535686845134e-09,6.287961281216739029e-14,6.771948453387910405e-14,1.310771188633560857e-28
1.000000000000000000e+00,6.016038778255961006e-09,2.091471391690510884e-14,2.266418172927608943e-12,2.623382701482762012e-33
9.999711513519287109e-01,2.886556831072084606e-05,8.943733753596916358e-09,1.781389147303968912e-09,1.367605500002502437e-17
9.959850311279296875e-01,4.014847334474325180e-03,1.744000712733395630e-07,6.062584212429555919e-09,2.203723696969058713e-20
1.000000000000000000e+00,1.032189850085074578e-12,6.631997173656145605e-09,3.323757962652232334e-14,5.903925427957227698e-34
9.997470974922180176e-01,4.162695404374971986e-05,5.412028158957582491e-08,2.112711372319608927e-04,4.937254960691197760e-20
1.000000000000000000e+00,4.550592680452325567e-10,1.401885185714490945e-08,3.128410074396126284e-13,1.379369823246395537e-26
9.999164342880249023e-01,2.915305594797246158e-05,5.439033338916487992e-05,3.419969019091695372e-08,4.250051160019971881e-21
9.999990463256835938e-01,4.273977283197893939e-10,9.805514764593681321e-07,2.611916238848266403e-11,2.291701080311062397e-24
1.000000000000000000e+00,3.616679655413235217e-12,2.961751555119462864e-08,1.770642437500717734e-15,1.078300340156185882e-30
9.999997615814208984e-01,2.149751452407144825e-07,1.807714351473310721e-12,1.406924715618984578e-10,1.265359951290221577e-27
1.000000000000000000e+00,4.190831504047309863e-08,2.461376415185956290e-11,3.144160550406366328e-13,4.579151186419115066e-25
9.945688247680664062e-01,4.842077381908893585e-03,5.888720043003559113e-04,1.974190269038444967e-07,5.989032880737710229e-11
4.057393223047256470e-02,1.409578271704958752e-05,5.371082806959748268e-05,9.593583345413208008e-01,1.418148088314064546e-15
9.999992847442626953e-01,7.375992936431430280e-07,2.224210815526816987e-10,8.930454466204995612e-12,3.580276382299474695e-29
1.000000000000000000e+00,1.874960039657813660e-12,1.702259305735864814e-10,1.828065845019740949e-18,6.060971932404566099e-34
9.999969005584716797e-01,3.055703018617350608e-06,2.091161098449756395e-11,7.956899139571760315e-09,1.171165205090981431e-20
1.000000000000000000e+00,5.038086126691819196e-17,1.077239032263482051e-16,9.453296649452838001e-17,9.099421126670263863e-36
9.999541044235229492e-01,4.584244015859439969e-05,1.618894324151298747e-10,2.581758273834111606e-08,4.999804172854164378e-28
1.000000000000000000e+00,2.018113010038291577e-09,5.892870555673085375e-14,2.641503586231584016e-14,1.576379066754966328e-32
1.000000000000000000e+00,8.422283426234855597e-10,3.947159637570748689e-17,7.395779301477833911e-12,3.606736514136740828e-36
1.000000000000000000e+00,7.420768444177383572e-10,1.121252513058834666e-08,5.903422553316800547e-14,2.719197377321005654e-28
9.870224595069885254e-01,1.297757960855960846e-02,4.658613761421293020e-08,4.638718922866935657e-11,9.782500967486897146e-18
9.999991655349731445e-01,8.166378506757610012e-07,9.502969966490582010e-09,4.102640893677289569e-09,4.160427762232328105e-27
9.986224174499511719e-01,8.097701356746256351e-05,1.296654460020363331e-03,1.529942750266855001e-08,4.270633732718007169e-14
1.000000000000000000e+00,5.125106028458503715e-08,5.179281482858844043e-12,1.903361496191635638e-11,8.079079024737665591e-25
1.000000000000000000e+00,7.716653704914477885e-11,5.340994313485225575e-10,5.909035739014301125e-13,2.237988132535056630e-28
1.000000000000000000e+00,3.890973480913384464e-12,2.264156952882799735e-17,8.820705893238133263e-21,0.000000000000000000e+00
8.295932412147521973e-01,1.611293405294418335e-01,9.277313947677612305e-03,3.323150821188392001e-08,1.745755444840083916e-15
9.999921321868896484e-01,7.481281045329524204e-06,2.439000184040196473e-07,9.925586397230290459e-08,1.169226662089023662e-20
1.000000000000000000e+00,3.628897005114595231e-08,1.510828973039224365e-08,9.808477641204405018e-11,1.235454603183269061e-19
1.000000000000000000e+00,1.416998463010799014e-12,2.815340581513057702e-16,2.182067894429540189e-12,1.785627504619162221e-36
1.000000000000000000e+00,7.473814969682912590e-12,4.669738120494093536e-12,2.537301098393118792e-11,2.804337498287753569e-35
9.995982050895690918e-01,3.891757805831730366e-04,6.836117893982418536e-09,1.262959085579495877e-05,1.717095281308673204e-20
9.999861717224121094e-01,3.884910256601870060e-06,9.835877790465019643e-06,4.823810795251404215e-11,1.233904925945987496e-22
9.960718154907226562e-01,3.927155863493680954e-03,1.099644237001484726e-06,9.296541869652230616e-10,4.499069989864068182e-19
9.992823004722595215e-01,3.764142456930130720e-04,3.412673831917345524e-04,3.466334330681775100e-09,3.363340193442252053e-17
9.999655485153198242e-01,3.437633495195768774e-05,2.075940752632732256e-09,1.056448439840096398e-07,8.027212049572614251e-20
9.987680315971374512e-01,3.829703416613483569e-07,1.231548958458006382e-03,4.086788916109781837e-16,2.183900200498126033e-22
9.999885559082031250e-01,1.149212039308622479e-05,1.645086194004830027e-12,3.954065841296847822e-15,1.977225433359943922e-29
9.999352693557739258e-01,6.472822860814630985e-05,6.683235742599435980e-09,1.304546639983861223e-12,9.324646513693790313e-25
9.999612569808959961e-01,3.876784103340469301e-05,3.753388710947547224e-09,7.830316839374518167e-09,1.298147138796545874e-19
9.999998807907104492e-01,1.087817409484159725e-07,1.499989465969520097e-08,1.894071972695495973e-15,1.658937983939550374e-34
9.999659061431884766e-01,5.994567345624091104e-06,2.813121500366833061e-05,1.310669794918339903e-08,1.693140617464761607e-22
9.922108650207519531e-01,7.788991555571556091e-03,7.452382533301715739e-08,3.255595792950316536e-10,1.821177878971787386e-16
9.999781847000122070e-01,1.372756202044911333e-07,2.166466401831712574e-05,7.505472354729647577e-10,2.813711708495481257e-31
9.999998807907104492e-01,1.157410380869805522e-07,1.810765404286485136e-08,1.308008876991367808e-13,1.808587077328604786e-27
9.999989271163940430e-01,8.169165539584355429e-07,2.437042780911724549e-07,3.894820934952775149e-13,1.241085025419851065e-32
9.050146341323852539e-01,3.444886580109596252e-02,6.712446709578046011e-10,6.053646281361579895e-02,1.095884684679069271e-34
1.000000000000000000e+00,3.348827075019822352e-12,4.161466252415477142e-18,8.218476084138198745e-14,7.857454019587899740e-37
9.999397993087768555e-01,4.571033787215128541e-05,1.459177110518794507e-05,5.224170962492280523e-08,1.689050400669671152e-16
1.000000000000000000e+00,5.574720343178983951e-16,1.826583444667734117e-23,3.424965156186036004e-21,0.000000000000000000e+00
1.000000000000000000e+00,1.240226996622462163e-14,7.186933549007692228e-20,1.235196031693663813e-18,6.044519983524213253e-38
9.999989271163940430e-01,6.368842377924011089e-07,4.459238880372140557e-07,1.243377709819748489e-11,2.757019559940859947e-25
9.999929666519165039e-01,7.090980034263338894e-06,4.454256075092644096e-09,2.759642687977237330e-11,1.292705260980404736e-23
1.000000000000000000e+00,3.068706053155345614e-11,4.165602585093353127e-11,2.444616753608657292e-19,3.155407954916075335e-35
1.000000000000000000e+00,1.593473686334334616e-10,4.158713575331401957e-14,1.179185776800650842e-10,7.436732472793571158e-30
9.999994039535522461e-01,5.409871732808824163e-07,3.163749123791248508e-11,7.425924458681620877e-12,3.569604224291229274e-26
9.999727010726928711e-01,2.725632475630845875e-05,1.461984796191553165e-14,6.471135294283669737e-10,4.106545767399901207e-29
9.999982118606567383e-01,1.638527805880585220e-06,1.149891843965633598e-07,5.353046825251617236e-11,6.850099554985108577e-26
9.999998807907104492e-01,7.807000912407602300e-08,2.012929545269770415e-10,1.085083023433242033e-09,5.423788501943778511e-25
9.848251938819885254e-01,1.513919513672590256e-02,3.283584737800993025e-05,2.661247435753466561e-06,4.905726935788834453e-10
9.999977350234985352e-01,1.473598217671678867e-06,7.999209401532425545e-07,5.641010769608101327e-09,4.465110243296481350e-22
1.000000000000000000e+00,1.735058763330243892e-10,8.968871889473203213e-15,2.058182652087126030e-10,1.065232686841569234e-32
9.999996423721313477e-01,3.622908195666241227e-07,3.608304789941979562e-13,2.418944038129478002e-11,1.642749093973588903e-24
9.999580383300781250e-01,6.961966391827445477e-06,6.810141428559290944e-08,3.490563540253788233e-05,3.798183555573706856e-21
1.000000000000000000e+00,4.742453185713202402e-08,1.403636984420586487e-09,1.004669641208565112e-13,6.654737959214130564e-29
9.999613761901855469e-01,1.363554201816441491e-05,2.504004623915534467e-05,1.250980652400812687e-08,4.636567044587926341e-28
9.999994039535522461e-01,6.260264058255415875e-07,7.848366414263971500e-16,2.789421037902028999e-12,5.185848493906829883e-32
9.998569488525390625e-01,5.705271178158000112e-05,8.341338980244472623e-05,2.551872512412955984e-06,1.404997402058502654e-13
9.999995231628417969e-01,4.324919018472428434e-07,7.443932581452372688e-09,1.335597055174275738e-08,4.642457281951710316e-22
9.999998807907104492e-01,1.416854615854390431e-07,1.209430125492794161e-11,9.545644275021913927e-10,1.592609824534078722e-22
1.000000000000000000e+00,1.264660731692401896e-08,1.236515334568366598e-08,6.405388508013212800e-15,3.613290733591471454e-29
1.000000000000000000e+00,7.755956765720384283e-09,2.485872445390224783e-11,8.639386948894323126e-12,2.575550910646001861e-31
1.000000000000000000e+00,2.855289160663687653e-08,1.153942841955924066e-15,9.016873619288601205e-13,3.748267210618038768e-36
5.821532104164361954e-03,5.153404708835296333e-05,1.440331925550708547e-05,9.941125512123107910e-01,2.137196686578845053e-15
1.000000000000000000e+00,9.368785747199126490e-10,1.595937127569189984e-14,3.651490849461034791e-15,0.000000000000000000e+00
1.000000000000000000e+00,1.148342274170749046e-18,2.616612394143001328e-21,4.508869935430901317e-22,0.000000000000000000e+00
9.999923706054687500e-01,7.485621608793735504e-06,2.813706767579304824e-10,6.904691929321415955e-08,1.205345254735732996e-18
1.000000000000000000e+00,8.938769169297700046e-10,9.332860873012549519e-11,7.699015869278014179e-10,3.683925779119953143e-28
9.998762607574462891e-01,1.237013493664562702e-04,5.587877166188248701e-13,1.567129022037039299e-12,2.473193569218161938e-26
9.999953508377075195e-01,4.701909801951842383e-06,4.549495502548239756e-10,2.284491706916469411e-09,8.249133122963697792e-27
9.999988079071044922e-01,1.080563606592477299e-06,4.955204579992766867e-10,9.369570364015089581e-08,4.098002357956297559e-20
9.999996423721313477e-01,3.316954462206922472e-07,8.468502808722799813e-12,2.244183484878536916e-11,4.934981704268464890e-27
9.996978044509887695e-01,2.654394677392701851e-07,3.020394942723214626e-04,9.309478743446675253e-10,2.959544367362856106e-17
9.967086315155029297e-01,2.151867141947150230e-03,1.212520373883307911e-06,1.138291554525494576e-03,1.064370103709239319e-18
1.000000000000000000e+00,2.985243532271008790e-15,2.194957769076247116e-16,1.868813382379562507e-18,0.000000000000000000e+00
9.999972581863403320e-01,2.764714054137584753e-06,3.307117492183653251e-14,2.133275760901609530e-12,2.151827563871761811e-28
9.974935054779052734e-01,5.302165959619742353e-07,2.506030723452568054e-03,9.457019167768976331e-09,1.446122749001500785e-14
1.000000000000000000e+00,4.112878926321172912e-08,5.529338922491411346e-14,6.736245675847962744e-12,7.017146064917276040e-30
9.773147106170654297e-01,2.264692075550556183e-02,3.797399040195159614e-05,3.224295426207390847e-07,2.110054759863722279e-16
9.902328252792358398e-01,4.648558329790830612e-03,3.210201160982251167e-03,1.908368663862347603e-03,9.149096411031898413e-12
1.000000000000000000e+00,1.675072835027648099e-17,1.401112901236527511e-19,1.919511205068582073e-27,0.000000000000000000e+00
9.897247552871704102e-01,1.026586536318063736e-02,9.452276572119444609e-06,4.975900225190343917e-08,5.982589074245692998e-17
1.000000000000000000e+00,2.337719861439380153e-12,1.675910107243674274e-17,6.618550651114885053e-13,2.690173600295333576e-36
9.999998807907104492e-01,7.834119486460622284e-08,1.621758456693545014e-11,1.454948357973440132e-13,2.202972848364400905e-27
9.999878406524658203e-01,1.193368825624929741e-05,2.443098594540060731e-07,8.953112695664344756e-10,1.222625149012638809e-21
9.999535083770751953e-01,4.340723171480931342e-05,3.129296146653359756e-06,4.437570311210947693e-09,7.797150037712648196e-18
9.999998807907104492e-01,1.727492815462028375e-07,1.834646878862145059e-10,4.034524381246740177e-10,2.630939619244878853e-25
9.999998807907104492e-01,6.245606698485062225e-08,3.630685772100690489e-14,5.632252043225038918e-12,2.364426637090293906e-28
1.000000000000000000e+00,2.848020930201755618e-09,4.400562759240139732e-13,4.585618829100468474e-10,1.396857729364618292e-29
9.872692823410034180e-01,3.386151976883411407e-03,9.344398975372314453e-03,2.590204530861228704e-07,2.206050300795252619e-15
1.000000000000000000e+00,3.339559384585299995e-08,1.324277146275143480e-11,6.464987969643511915e-16,2.575127262481965509e-32
9.999994039535522461e-01,6.030143140378640965e-07,2.183917245180203026e-14,1.045583568727928570e-13,2.102535275259295670e-31
8.949319720268249512e-01,1.050680503249168396e-01,4.985857415817918081e-08,1.985205067001061252e-08,1.176186985942006061e-14
9.999895095825195312e-01,5.425382823887048289e-06,4.966456799593288451e-06,2.571890478364480259e-09,2.218640688130973127e-23
9.999495744705200195e-01,3.768545866478234529e-05,5.740969299949938431e-08,1.271529527002712712e-05,1.478593487497691788e-19
8.892540335655212402e-01,1.107459440827369690e-01,2.981567348570024478e-08,2.058326309395397402e-08,7.134271582312089362e-16
9.994934797286987305e-01,2.408750151516869664e-04,2.419838856440037489e-04,2.356114418944343925e-05,2.568085989088780829e-13
9.999996423721313477e-01,3.036896032426739112e-07,9.146484680755406771e-10,1.847719026393246367e-12,4.754913802630069255e-27
9.999961853027343750e-01,1.242053571104406728e-08,3.802210130743333139e-06,6.737051990873831209e-24,0.000000000000000000e+00
9.999914169311523438e-01,8.585352588852401823e-06,8.546279794963140830e-10,2.324959114119451442e-09,6.748425396130298767e-21
9.999995231628417969e-01,4.359862373348732945e-07,1.821362366483114670e-10,6.784517289584033392e-20,0.000000000000000000e+00
1.000000000000000000e+00,1.191247708115517057e-11,1.226923096453447215e-08,9.179652357443709991e-19,6.420095414992389565e-36
1.000000000000000000e+00,2.595166526120351591e-09,1.415578825626805440e-14,1.845570137687380097e-13,9.189657484445993762e-30
9.993033409118652344e-01,6.963561754673719406e-04,1.871615467052833992e-07,1.001312574522295051e-11,2.763104848740952936e-22
9.982637763023376465e-01,7.396633009193465114e-06,1.727927941828966141e-03,9.490650541010836605e-07,3.167395267660526705e-16
1.000000000000000000e+00,1.064903831782260113e-09,1.870274246584813227e-08,3.637586542745707696e-12,1.035930415103002532e-25
1.000000000000000000e+00,3.415498994741028582e-10,7.990876637145073735e-15,3.009710224536237065e-17,1.985491067649050339e-32
9.999996423721313477e-01,3.836781843347125687e-07,8.352613305867562232e-13,8.587288866102049667e-12,1.227234977816370612e-25
6.451424360275268555e-01,3.548567593097686768e-01,5.670191285389591940e-07,2.342804918953333981e-07,2.119691265107454792e-18
9.999994039535522461e-01,5.454860456666210666e-07,2.926870301678263786e-08,1.342680133742391035e-11,8.725291760915237119e-28
1.000000000000000000e+00,1.795937313794904178e-12,2.777788302238824356e-17,2.759369471539106089e-17,0.000000000000000000e+00
9.999998807907104492e-01,1.084647536231386766e-07,1.187519860224028889e-08,3.841007512050964579e-09,3.087672580516510097e-24
9.999207258224487305e-01,7.691145583521574736e-05,2.398812739556888118e-06,1.074756905694584930e-08,3.799389591369157706e-21
1.000000000000000000e+00,5.765870094744107721e-13,1.895055970870321294e-14,2.401671087168552632e-20,2.236278549484791923e-38
1.000000000000000000e+00,5.077363876559992661e-11,7.069829205570699049e-13,3.003515138056582419e-18,0.000000000000000000e+00
1.000000000000000000e+00,1.575222396965614280e-09,3.814060983055046197e-17,1.453438127874638868e-15,1.081042204239365884e-32
1.000000000000000000e+00,3.341564802639140908e-09,4.657081476011626364e-08,1.566370171995857749e-15,7.938220556187702534e-31
9.999854564666748047e-01,1.457146663597086444e-05,3.587307187413735221e-11,8.213676849777584721e-09,7.742242320741214234e-25
9.922894835472106934e-01,7.693829480558633804e-03,1.673667793511413038e-05,6.794044216107408829e-10,2.614998744098082233e-18
9.999985694885253906e-01,1.409423703080392443e-06,9.454857903545832443e-12,1.591336229456175033e-10,1.560225191108583657e-23
1.000000000000000000e+00,3.428842543229393414e-09,7.105633186607184654e-15,2.115191051824116819e-12,2.735633210804259408e-30
1.000000000000000000e+00,3.432868567188052111e-08,3.328049641426744643e-12,7.452586724826515407e-13,7.116169396066929576e-27
9.999779462814331055e-01,1.363256814101987402e-07,2.198854235757607967e-05,4.010609119114993959e-12,5.635624326382825704e-22
9.993430972099304199e-01,5.152188897739051754e-09,6.568565149791538715e-04,4.469158062288952626e-13,7.379775624541745356e-24
1.000000000000000000e+00,1.048187957871510312e-13,1.360984849124724505e-11,1.841364593163878486e-17,1.643457476390289343e-32
1.000000000000000000e+00,1.605953814376448463e-09,3.497023634210782994e-13,1.227890445570922751e-11,1.103123320190183774e-28
1.000000000000000000e+00,1.598210674913502771e-09,1.122436646801500473e-14,1.406686724568506630e-13,1.341961955102121334e-29
9.729847908020019531e-01,9.145815965894144028e-06,2.527948026909143664e-06,2.700345776975154877e-02,2.238060739677959161e-22
1.000000000000000000e+00,4.206439450232801747e-12,8.044412358465535817e-12,4.916572963835534409e-18,2.123954310473933818e-32
1.000000000000000000e+00,7.103781451966995064e-10,2.493810491444037325e-09,8.660951296424190815e-12,8.741663513593489695e-26
9.999997615814208984e-01,2.410139074981998419e-07,2.302261492559409817e-09,1.024411024758142830e-12,2.407735678565910770e-26
9.999998807907104492e-01,1.625806618221758981e-07,1.235527679006918986e-15,5.893113569425652634e-15,1.762797471487464635e-30
4.328022897243499756e-01,5.671927332878112793e-01,3.930205821234267205e-06,1.065631408891931642e-06,7.257481941802534919e-12
1.000000000000000000e+00,8.628336760352350865e-12,2.600862407386994590e-11,1.962672946100495143e-18,0.000000000000000000e+00
9.999336004257202148e-01,6.635682075284421444e-05,3.674434020939365553e-12,1.890098078050073127e-09,1.476244222708589942e-24
